 LCModel (Version 6.3-1L) Copyright: S.W. Provencher.          Ref.: Magn. Reson. Med. 30:672-679 (1993).                
 Slice#3 Row#14 Col#7  K_02_press_1_raw_act
 36 lines in following concentration table = NCONC+1
    Conc.  %SD /Cr+PCr  Metabolite                                         
    0.000 999%   0.000 Ala                                                 
   10.794 146% 6.7E-02 Asp                                                 
    0.000 999%   0.000 Cr                                                  
  160.798  16%   1.000 PCr                                                 
    8.317 114% 5.2E-02 GABA                                                
    6.633 144% 4.1E-02 Glc                                                 
    0.000 999%   0.000 Gln                                                 
    0.000 999%   0.000 Glu                                                 
   24.738  34%   0.154 GPC                                                 
    0.000 999%   0.000 PCh                                                 
    0.000 999%   0.000 GSH                                                 
    0.000 999%   0.000 Ins                                                 
   34.399 179%   0.214 Lac                                                 
    0.000 999%   0.000 NAA                                                 
    9.796 281% 6.1E-02 NAAG                                                
    1.290 241% 8.0E-03 Scyllo                                              
    7.231 218% 4.5E-02 Tau                                                 
    0.000 999%   0.000 -CrCH2                                              
   24.738  34%   0.154 GPC+PCh                                             
    9.796 281% 6.1E-02 NAA+NAAG                                            
  160.798  16%   1.000 Cr+PCr                                              
    0.000 999%   0.000 Glu+Gln                                             
  843.226  31%   5.244 Lip13a                                              
    0.000 999%   0.000 Lip13b                                              
  218.851  35%   1.361 Lip09                                               
  119.796  64%   0.745 MM09                                                
  128.429  34%   0.799 Lip20                                               
  200.252  62%   1.245 MM20                                                
   39.462  90%   0.245 MM12                                                
  227.482  48%   1.415 MM14                                                
    0.000 999%   0.000 MM17                                                
  843.226  31%   5.244 Lip13a+Lip13b                                       
 1.11E+03  22%   6.904 MM14+Lip13a+Lip13b+MM12                             
  338.646  24%   2.106 MM09+Lip09                                          
  328.681  36%   2.044 MM20+Lip20                                          
   6 lines in following misc. output table
  FWHM = 0.054 ppm    S/N =   2                                            
  Data shift = 0.092 ppm                                                   
  Ph: 138 deg      56.4 deg/ppm                                            
  alphaB,S = 4.9E-01,   2.6E+01                                            
   14 spline knots.   Ns = 7(1)                                            
  (12) 4 infls.   (11) 1 extrs.                                            
  498 points on ppm-axis = NY
      4.000000     3.992357     3.984714     3.977070     3.969427     3.961784     3.954141     3.946497     3.938854     3.931211
      3.923568     3.915925     3.908281     3.900638     3.892995     3.885352     3.877708     3.870065     3.862422     3.854779
      3.847136     3.839492     3.831849     3.824206     3.816563     3.808919     3.801276     3.793633     3.785990     3.778347
      3.770703     3.763060     3.755417     3.747774     3.740130     3.732487     3.724844     3.717201     3.709558     3.701914
      3.694271     3.686628     3.678985     3.671341     3.663698     3.656055     3.648412     3.640769     3.633125     3.625482
      3.617839     3.610196     3.602552     3.594909     3.587266     3.579623     3.571980     3.564336     3.556693     3.549050
      3.541407     3.533763     3.526120     3.518477     3.510834     3.503191     3.495547     3.487904     3.480261     3.472618
      3.464974     3.457331     3.449688     3.442045     3.434402     3.426758     3.419115     3.411472     3.403829     3.396185
      3.388542     3.380899     3.373256     3.365613     3.357969     3.350326     3.342683     3.335040     3.327396     3.319753
      3.312110     3.304467     3.296824     3.289180     3.281537     3.273894     3.266251     3.258607     3.250964     3.243321
      3.235678     3.228034     3.220391     3.212748     3.205105     3.197462     3.189818     3.182175     3.174532     3.166889
      3.159245     3.151602     3.143959     3.136316     3.128673     3.121029     3.113386     3.105743     3.098100     3.090456
      3.082813     3.075170     3.067527     3.059884     3.052240     3.044597     3.036954     3.029311     3.021667     3.014024
      3.006381     2.998738     2.991095     2.983451     2.975808     2.968165     2.960522     2.952878     2.945235     2.937592
      2.929949     2.922306     2.914662     2.907019     2.899376     2.891733     2.884089     2.876446     2.868803     2.861160
      2.853517     2.845873     2.838230     2.830587     2.822944     2.815300     2.807657     2.800014     2.792371     2.784728
      2.777084     2.769441     2.761798     2.754155     2.746511     2.738868     2.731225     2.723582     2.715939     2.708295
      2.700652     2.693009     2.685366     2.677722     2.670079     2.662436     2.654793     2.647150     2.639506     2.631863
      2.624220     2.616577     2.608933     2.601290     2.593647     2.586004     2.578361     2.570717     2.563074     2.555431
      2.547788     2.540144     2.532501     2.524858     2.517215     2.509572     2.501928     2.494285     2.486642     2.478999
      2.471355     2.463712     2.456069     2.448426     2.440783     2.433139     2.425496     2.417853     2.410210     2.402566
      2.394923     2.387280     2.379637     2.371994     2.364350     2.356707     2.349064     2.341421     2.333777     2.326134
      2.318491     2.310848     2.303205     2.295561     2.287918     2.280275     2.272632     2.264988     2.257345     2.249702
      2.242059     2.234416     2.226772     2.219129     2.211486     2.203843     2.196199     2.188556     2.180913     2.173270
      2.165627     2.157983     2.150340     2.142697     2.135054     2.127410     2.119767     2.112124     2.104481     2.096838
      2.089194     2.081551     2.073908     2.066265     2.058621     2.050978     2.043335     2.035692     2.028049     2.020405
      2.012762     2.005119     1.997476     1.989833     1.982190     1.974546     1.966903     1.959260     1.951617     1.943974
      1.936331     1.928688     1.921045     1.913402     1.905759     1.898115     1.890472     1.882829     1.875186     1.867543
      1.859900     1.852257     1.844614     1.836971     1.829327     1.821684     1.814041     1.806398     1.798755     1.791112
      1.783469     1.775826     1.768183     1.760540     1.752896     1.745253     1.737610     1.729967     1.722324     1.714681
      1.707038     1.699395     1.691752     1.684108     1.676465     1.668822     1.661179     1.653536     1.645893     1.638250
      1.630607     1.622964     1.615321     1.607677     1.600034     1.592391     1.584748     1.577105     1.569462     1.561819
      1.554176     1.546533     1.538890     1.531246     1.523603     1.515960     1.508317     1.500674     1.493031     1.485388
      1.477745     1.470102     1.462458     1.454815     1.447172     1.439529     1.431886     1.424243     1.416600     1.408957
      1.401314     1.393671     1.386027     1.378384     1.370741     1.363098     1.355455     1.347812     1.340169     1.332526
      1.324883     1.317240     1.309596     1.301953     1.294310     1.286667     1.279024     1.271381     1.263738     1.256095
      1.248452     1.240808     1.233165     1.225522     1.217879     1.210236     1.202593     1.194950     1.187307     1.179664
      1.172021     1.164377     1.156734     1.149091     1.141448     1.133805     1.126162     1.118519     1.110876     1.103233
      1.095590     1.087946     1.080303     1.072660     1.065017     1.057374     1.049731     1.042088     1.034445     1.026802
      1.019158     1.011515     1.003872     0.996229     0.988586     0.980943     0.973300     0.965657     0.958014     0.950371
      0.942727     0.935084     0.927441     0.919798     0.912155     0.904512     0.896869     0.889226     0.881583     0.873940
      0.866296     0.858653     0.851010     0.843367     0.835724     0.828081     0.820438     0.812795     0.805152     0.797508
      0.789865     0.782222     0.774579     0.766936     0.759293     0.751650     0.744007     0.736364     0.728721     0.721077
      0.713434     0.705791     0.698148     0.690505     0.682862     0.675219     0.667576     0.659933     0.652290     0.644646
      0.637003     0.629360     0.621717     0.614074     0.606431     0.598788     0.591145     0.583502     0.575858     0.568215
      0.560572     0.552929     0.545286     0.537643     0.530000     0.522357     0.514714     0.507071     0.499427     0.491784
      0.484141     0.476498     0.468855     0.461212     0.453569     0.445925     0.438282     0.430639     0.422996     0.415353
      0.407710     0.400067     0.392424     0.384780     0.377137     0.369494     0.361851     0.354208     0.346565     0.338922
      0.331278     0.323635     0.315992     0.308349     0.300706     0.293063     0.285420     0.277777     0.270133     0.262490
      0.254847     0.247204     0.239561     0.231918     0.224275     0.216631     0.208988     0.201345
 NY phased data points follow
   4.60846E+01  4.54058E+01  4.60478E+01  4.57070E+01  4.43737E+01  4.25913E+01  4.18081E+01  4.10959E+01  3.90154E+01  3.89443E+01
   4.17912E+01  3.80926E+01  3.64334E+01  3.65921E+01  3.71818E+01  3.39110E+01  3.66085E+01  3.47373E+01  3.12250E+01  3.31667E+01
   3.10602E+01  3.52672E+01  3.41493E+01  3.08871E+01  3.14727E+01  2.97650E+01  3.00528E+01  2.93077E+01  2.82333E+01  2.99548E+01
   3.13836E+01  2.90125E+01  2.57879E+01  2.75286E+01  2.84661E+01  2.77220E+01  2.69029E+01  2.46440E+01  2.63113E+01  2.38725E+01
   2.54452E+01  2.45899E+01  2.73497E+01  2.26619E+01  2.26369E+01  2.32321E+01  2.42402E+01  2.24883E+01  2.14782E+01  2.28694E+01
   2.14869E+01  1.99273E+01  2.33015E+01  2.37480E+01  1.99190E+01  2.03231E+01  2.12546E+01  2.03933E+01  2.02741E+01  1.66946E+01
   1.93245E+01  2.02194E+01  1.75266E+01  1.96325E+01  1.61073E+01  1.73246E+01  1.72029E+01  1.90638E+01  1.72360E+01  1.74171E+01
   1.31713E+01  1.69923E+01  1.83773E+01  1.43054E+01  1.64723E+01  1.43296E+01  1.45264E+01  1.38325E+01  1.47248E+01  1.54152E+01
   1.17353E+01  1.39464E+01  1.39348E+01  1.16535E+01  9.81108E+00  1.33922E+01  1.21988E+01  1.34267E+01  1.05736E+01  1.16662E+01
   1.19902E+01  1.17660E+01  1.05199E+01  1.03986E+01  9.74665E+00  1.07108E+01  1.03718E+01  1.28520E+01  1.38967E+01  1.01028E+01
   1.16913E+01  8.99593E+00  1.05673E+01  1.29874E+01  9.58747E+00  1.04783E+01  8.33444E+00  6.95717E+00  6.99249E+00  5.83180E+00
   7.21031E+00  7.37439E+00  8.84851E+00  1.07729E+01  1.00991E+01  7.01294E+00  6.81503E+00  6.68448E+00  7.86842E+00  8.88863E+00
   7.91310E+00  8.88904E+00  7.89670E+00  7.13293E+00  7.02552E+00  6.74997E+00  7.53688E+00  6.49400E+00  3.89727E+00  6.63553E+00
   3.72434E+00  6.56884E+00  4.54700E+00  4.73519E+00  6.23566E+00  3.32387E+00  3.95569E+00  4.87263E+00  3.77067E+00  3.21551E+00
   2.00407E+00  5.03895E+00  2.04598E+00  3.00595E+00  4.46361E+00  4.00592E+00  7.52747E-01  1.75663E+00 -2.45661E-01 -7.80720E-01
   2.34110E+00 -1.17647E+00  1.27785E+00  2.40474E+00  2.41283E-01 -2.95094E-01  1.94564E-01  3.89017E+00 -1.58361E-01 -2.49241E+00
  -1.71609E-01  8.04896E-01 -4.98479E-01 -3.12853E-01  1.68982E+00 -3.22749E-01 -1.24840E+00  9.77711E-01 -1.30317E+00 -1.40754E+00
  -3.61291E+00 -3.53217E+00 -9.47424E-01 -2.69352E+00 -2.99961E-01 -3.46160E+00 -2.82869E+00 -1.82910E+00 -4.28735E+00 -1.77510E+00
  -3.51425E+00 -2.26966E+00 -1.91580E+00 -4.52625E+00 -2.54462E+00 -3.46137E+00 -4.79741E+00 -4.07659E+00 -4.56708E+00 -5.29248E+00
  -4.55408E+00 -3.91987E+00 -5.07457E+00 -3.48005E+00 -6.45006E+00 -6.54515E+00 -3.71410E+00 -5.94046E+00 -3.23357E+00 -6.52182E+00
  -2.69064E+00 -8.19592E+00 -6.06024E+00 -8.74919E+00 -7.22547E+00 -5.67293E+00 -7.82475E+00 -5.75791E+00 -5.93794E+00 -7.85822E+00
  -7.20685E+00 -8.79203E+00 -8.86256E+00 -8.24827E+00 -8.76450E+00 -7.50033E+00 -8.08775E+00 -7.64097E+00 -7.36659E+00 -7.85684E+00
  -6.84956E+00 -8.53698E+00 -8.80000E+00 -8.27122E+00 -7.47370E+00 -9.88741E+00 -1.05568E+01 -9.18439E+00 -9.29590E+00 -9.34171E+00
  -9.21450E+00 -7.91252E+00 -9.18740E+00 -1.18419E+01 -1.12807E+01 -7.48134E+00 -1.33766E+01 -9.02571E+00 -8.14406E+00 -9.22305E+00
  -6.05532E+00 -8.59553E+00 -8.78423E+00 -8.30635E+00 -9.16059E+00 -8.72747E+00 -8.85606E+00 -8.68903E+00 -8.48675E+00 -1.01043E+01
  -1.09493E+01 -1.15042E+01 -1.00629E+01 -7.61331E+00 -1.00456E+01 -9.15216E+00 -1.04322E+01 -1.08419E+01 -8.90153E+00 -1.28316E+01
  -1.11569E+01 -1.36327E+01 -1.21269E+01 -1.22020E+01 -1.31418E+01 -1.51643E+01 -1.40912E+01 -1.10694E+01 -1.41571E+01 -1.33085E+01
  -1.30236E+01 -1.11217E+01 -1.18953E+01 -1.02900E+01 -1.25751E+01 -1.13725E+01 -1.38146E+01 -1.14839E+01 -1.23593E+01 -1.40475E+01
  -9.67552E+00 -1.35732E+01 -1.22217E+01 -1.25434E+01 -1.37505E+01 -1.46995E+01 -1.48003E+01 -1.51095E+01 -1.24152E+01 -1.13246E+01
  -1.08532E+01 -1.40966E+01 -1.19082E+01 -1.50612E+01 -1.43017E+01 -1.30440E+01 -1.12354E+01 -1.46468E+01 -1.37649E+01 -1.49956E+01
  -1.65356E+01 -1.49885E+01 -1.29440E+01 -1.39539E+01 -1.39032E+01 -1.13745E+01 -1.13761E+01 -1.43414E+01 -1.25103E+01 -1.33807E+01
  -1.36837E+01 -1.50754E+01 -1.31194E+01 -1.34100E+01 -1.29675E+01 -1.50878E+01 -1.34015E+01 -1.05932E+01 -1.46054E+01 -1.38839E+01
  -1.27228E+01 -1.35783E+01 -1.12864E+01 -9.63082E+00 -1.21780E+01 -1.17294E+01 -1.08216E+01 -1.10103E+01 -8.70646E+00 -8.14910E+00
  -8.07269E+00 -8.43678E+00 -9.27305E+00 -1.02185E+01 -1.32161E+01 -1.13577E+01 -8.82593E+00 -1.11428E+01 -9.88627E+00 -9.58548E+00
  -9.60882E+00 -7.41524E+00 -6.25617E+00 -9.49361E+00 -6.87472E+00 -1.07985E+01 -5.33734E+00 -7.16631E+00 -9.50626E+00 -9.97680E+00
  -8.86725E+00 -7.01883E+00 -8.34306E+00 -1.00544E+01 -8.77271E+00 -5.34596E+00 -8.59478E+00 -6.39163E+00 -8.71471E+00 -1.09474E+01
  -7.07644E+00 -8.59461E+00 -6.96913E+00 -7.47847E+00 -8.40886E+00 -7.68722E+00 -8.63031E+00 -7.22137E+00 -7.50328E+00 -6.43975E+00
  -6.18617E+00 -7.79737E+00 -7.00343E+00 -7.41049E+00 -7.34348E+00 -9.87806E+00 -7.31211E+00 -7.26919E+00 -6.67386E+00 -7.41899E+00
  -6.16642E+00 -5.77667E+00 -7.38433E+00 -6.72001E+00 -6.95906E+00 -8.10390E+00 -7.33209E+00 -8.40177E+00 -7.13351E+00 -9.35957E+00
  -5.33905E+00 -6.20781E+00 -4.16082E+00 -5.86408E+00 -3.91433E+00 -5.81480E+00 -5.44549E+00 -8.39492E+00 -6.65863E+00 -7.76433E+00
  -6.64897E+00 -5.41247E+00 -4.19590E+00 -5.40166E+00 -5.97953E+00 -5.09057E+00 -6.70164E+00 -5.68392E+00 -6.74986E+00 -6.75810E+00
  -4.70267E+00 -6.23554E+00 -5.51253E+00 -4.26593E+00 -4.04724E+00 -6.28434E+00 -5.94349E+00 -4.54879E+00 -7.57802E+00 -4.62465E+00
  -5.69776E+00 -4.75113E+00 -5.27804E+00 -9.01370E+00 -5.01667E+00 -6.45344E+00 -6.19847E+00 -4.75230E+00 -7.01473E+00 -3.30719E+00
  -5.23229E+00 -5.42358E+00 -6.20438E+00 -5.16165E+00 -6.85955E+00 -2.95178E+00 -4.24685E+00 -2.14361E+00 -4.72551E+00 -2.87239E+00
  -2.73490E+00 -6.02412E+00 -4.17237E+00 -3.40812E+00 -4.65816E+00 -4.21846E+00 -4.47532E+00 -5.49224E+00 -2.79381E+00 -4.62261E+00
  -3.40905E+00 -3.98604E+00 -2.97081E+00 -3.39228E+00 -3.64421E+00 -3.96633E+00 -3.16796E+00 -2.74442E+00 -4.41307E+00 -4.94887E+00
  -1.55365E+00 -3.84375E+00 -1.58217E-01 -2.22890E+00 -3.31762E+00 -1.32330E+00 -2.06503E+00 -2.05289E+00 -4.39156E-01 -2.61422E+00
  -1.90651E+00 -5.79179E-01 -3.83193E+00 -2.06818E+00 -2.73529E+00 -1.05753E+00 -1.34602E+00 -1.42017E+00 -1.19695E+00 -1.98388E+00
  -3.06212E+00 -1.45102E+00 -2.31609E+00 -6.23270E-01 -1.87948E+00 -3.04750E+00 -2.17089E+00 -1.57937E+00 -5.58701E-01 -4.84020E+00
  -4.04964E-01 -2.01751E+00 -3.32377E+00 -1.56822E+00 -1.80413E+00 -1.57494E+00 -1.76337E+00 -1.45065E+00
 NY points of the fit to the data follow
   4.11995E+01  4.19800E+01  4.26999E+01  4.27331E+01  4.21098E+01  4.12526E+01  4.05339E+01  4.00158E+01  3.95269E+01  3.89268E+01
   3.82213E+01  3.74886E+01  3.68424E+01  3.63280E+01  3.58382E+01  3.52675E+01  3.46719E+01  3.42041E+01  3.37999E+01  3.34052E+01
   3.30186E+01  3.26429E+01  3.22734E+01  3.19031E+01  3.15299E+01  3.11570E+01  3.07893E+01  3.04270E+01  3.00687E+01  2.97126E+01
   2.93596E+01  2.90141E+01  2.86807E+01  2.83485E+01  2.79954E+01  2.76336E+01  2.72918E+01  2.69594E+01  2.66185E+01  2.62796E+01
   2.59404E+01  2.55888E+01  2.52340E+01  2.49016E+01  2.45896E+01  2.42802E+01  2.39561E+01  2.36196E+01  2.32879E+01  2.29645E+01
   2.26398E+01  2.23119E+01  2.19851E+01  2.16580E+01  2.13329E+01  2.10167E+01  2.07067E+01  2.03959E+01  2.00849E+01  1.97805E+01
   1.94834E+01  1.91879E+01  1.88932E+01  1.85980E+01  1.83035E+01  1.80138E+01  1.77303E+01  1.74512E+01  1.71815E+01  1.69230E+01
   1.66637E+01  1.63949E+01  1.61176E+01  1.58374E+01  1.55619E+01  1.52967E+01  1.50399E+01  1.47854E+01  1.45331E+01  1.42947E+01
   1.40675E+01  1.38342E+01  1.35873E+01  1.33309E+01  1.30771E+01  1.28344E+01  1.25963E+01  1.23534E+01  1.21060E+01  1.18608E+01
   1.16254E+01  1.14089E+01  1.12133E+01  1.10283E+01  1.08720E+01  1.09153E+01  1.14521E+01  1.20353E+01  1.21776E+01  1.18416E+01
   1.12945E+01  1.08220E+01  1.05060E+01  1.02351E+01  9.89271E+00  9.46747E+00  9.01761E+00  8.63275E+00  8.35858E+00  8.11798E+00
   7.81936E+00  7.48647E+00  7.24090E+00  7.05372E+00  6.88589E+00  6.74010E+00  6.63245E+00  6.65714E+00  7.32058E+00  8.92888E+00
   1.02738E+01  1.05651E+01  9.94606E+00  9.05648E+00  8.41275E+00  8.05761E+00  7.70890E+00  7.16995E+00  6.47153E+00  5.77010E+00
   5.24900E+00  4.93450E+00  4.62486E+00  4.17042E+00  3.70470E+00  3.43258E+00  3.23937E+00  3.06501E+00  2.90166E+00  2.74797E+00
   2.59755E+00  2.44304E+00  2.28413E+00  2.12442E+00  1.96756E+00  1.81501E+00  1.66377E+00  1.50953E+00  1.35281E+00  1.19776E+00
   1.04688E+00  8.99410E-01  7.52031E-01  5.98898E-01  4.42445E-01  2.88572E-01  1.38629E-01 -1.05317E-02 -1.61362E-01 -3.12935E-01
  -4.59508E-01 -6.00776E-01 -7.41597E-01 -8.86696E-01 -1.03448E+00 -1.18044E+00 -1.32346E+00 -1.46493E+00 -1.60780E+00 -1.75544E+00
  -1.90534E+00 -2.05402E+00 -2.20025E+00 -2.34549E+00 -2.49210E+00 -2.64155E+00 -2.79171E+00 -2.93463E+00 -3.06725E+00 -3.19693E+00
  -3.33021E+00 -3.46852E+00 -3.60911E+00 -3.74819E+00 -3.88468E+00 -4.02103E+00 -4.16216E+00 -4.30606E+00 -4.44762E+00 -4.58403E+00
  -4.71625E+00 -4.84784E+00 -4.98018E+00 -5.11013E+00 -5.23725E+00 -5.36357E+00 -5.49011E+00 -5.61684E+00 -5.74327E+00 -5.86854E+00
  -5.99220E+00 -6.11524E+00 -6.24007E+00 -6.36442E+00 -6.48534E+00 -6.60228E+00 -6.71661E+00 -6.82996E+00 -6.94312E+00 -7.05645E+00
  -7.16996E+00 -7.28272E+00 -7.39199E+00 -7.49686E+00 -7.59791E+00 -7.69477E+00 -7.78397E+00 -7.86402E+00 -7.94051E+00 -8.02255E+00
  -8.11388E+00 -8.21262E+00 -8.31451E+00 -8.41914E+00 -8.52744E+00 -8.63062E+00 -8.72032E+00 -8.79922E+00 -8.87286E+00 -8.94685E+00
  -9.02483E+00 -9.10624E+00 -9.18620E+00 -9.26152E+00 -9.33308E+00 -9.40524E+00 -9.47778E+00 -9.54538E+00 -9.60542E+00 -9.66068E+00
  -9.71514E+00 -9.76963E+00 -9.82357E+00 -9.87619E+00 -9.92661E+00 -9.97439E+00 -1.00202E+01 -1.00641E+01 -1.00893E+01 -1.00547E+01
  -1.00075E+01 -1.00176E+01 -1.00973E+01 -1.02154E+01 -1.03330E+01 -1.04336E+01 -1.05282E+01 -1.06329E+01 -1.07525E+01 -1.08814E+01
  -1.10084E+01 -1.11244E+01 -1.12377E+01 -1.13617E+01 -1.14921E+01 -1.16089E+01 -1.17120E+01 -1.18083E+01 -1.19002E+01 -1.19883E+01
  -1.20733E+01 -1.21571E+01 -1.22404E+01 -1.23211E+01 -1.23989E+01 -1.24739E+01 -1.25451E+01 -1.26121E+01 -1.26746E+01 -1.27319E+01
  -1.27841E+01 -1.28326E+01 -1.28777E+01 -1.29197E+01 -1.29587E+01 -1.29932E+01 -1.30231E+01 -1.30499E+01 -1.30745E+01 -1.30966E+01
  -1.31159E+01 -1.31323E+01 -1.31461E+01 -1.31575E+01 -1.31662E+01 -1.31718E+01 -1.31743E+01 -1.31740E+01 -1.31708E+01 -1.31649E+01
  -1.31563E+01 -1.31448E+01 -1.31300E+01 -1.31122E+01 -1.30913E+01 -1.30670E+01 -1.30391E+01 -1.30074E+01 -1.29718E+01 -1.29321E+01
  -1.28878E+01 -1.28387E+01 -1.27845E+01 -1.27248E+01 -1.26594E+01 -1.25879E+01 -1.25101E+01 -1.24258E+01 -1.23347E+01 -1.22369E+01
  -1.21322E+01 -1.20207E+01 -1.19027E+01 -1.17785E+01 -1.16484E+01 -1.15130E+01 -1.13727E+01 -1.12283E+01 -1.10804E+01 -1.09298E+01
  -1.07771E+01 -1.06229E+01 -1.04676E+01 -1.03117E+01 -1.01551E+01 -9.99761E+00 -9.83812E+00 -9.67443E+00 -9.50152E+00 -9.30556E+00
  -9.05585E+00 -8.81688E+00 -8.72027E+00 -8.74519E+00 -8.79882E+00 -8.81095E+00 -8.78005E+00 -8.74514E+00 -8.64668E+00 -8.43637E+00
  -8.19250E+00 -7.99183E+00 -7.85522E+00 -7.76442E+00 -7.69336E+00 -7.62282E+00 -7.54538E+00 -7.47866E+00 -7.45126E+00 -7.45449E+00
  -7.46313E+00 -7.46659E+00 -7.48107E+00 -7.52485E+00 -7.58133E+00 -7.63199E+00 -7.68074E+00 -7.72914E+00 -7.77683E+00 -7.82293E+00
  -7.86637E+00 -7.90599E+00 -7.94069E+00 -7.96942E+00 -7.99128E+00 -8.00550E+00 -8.01140E+00 -8.00838E+00 -7.99592E+00 -7.97361E+00
  -7.94114E+00 -7.89831E+00 -7.84495E+00 -7.78096E+00 -7.70634E+00 -7.62118E+00 -7.52576E+00 -7.42047E+00 -7.30584E+00 -7.18257E+00
  -7.05159E+00 -6.91406E+00 -6.77138E+00 -6.62511E+00 -6.47701E+00 -6.32899E+00 -6.18306E+00 -6.04131E+00 -5.90579E+00 -5.77845E+00
  -5.66101E+00 -5.55497E+00 -5.46154E+00 -5.38155E+00 -5.31543E+00 -5.26319E+00 -5.22440E+00 -5.19830E+00 -5.18379E+00 -5.17953E+00
  -5.18393E+00 -5.19527E+00 -5.21178E+00 -5.23171E+00 -5.25340E+00 -5.27530E+00 -5.29604E+00 -5.31440E+00 -5.32941E+00 -5.34030E+00
  -5.34652E+00 -5.34770E+00 -5.34361E+00 -5.33418E+00 -5.31948E+00 -5.29966E+00 -5.27497E+00 -5.24568E+00 -5.21209E+00 -5.17451E+00
  -5.13330E+00 -5.08880E+00 -5.04132E+00 -4.99118E+00 -4.93862E+00 -4.88393E+00 -4.82736E+00 -4.76913E+00 -4.70945E+00 -4.64847E+00
  -4.58637E+00 -4.52329E+00 -4.45939E+00 -4.39477E+00 -4.32955E+00 -4.26381E+00 -4.19763E+00 -4.13112E+00 -4.06434E+00 -3.99737E+00
  -3.93026E+00 -3.86305E+00 -3.79580E+00 -3.72857E+00 -3.66139E+00 -3.59426E+00 -3.52720E+00 -3.46022E+00 -3.39334E+00 -3.32659E+00
  -3.25997E+00 -3.19349E+00 -3.12714E+00 -3.06092E+00 -2.99487E+00 -2.92898E+00 -2.86325E+00 -2.79768E+00 -2.73226E+00 -2.66701E+00
  -2.60192E+00 -2.53701E+00 -2.47226E+00 -2.40767E+00 -2.34323E+00 -2.27894E+00 -2.21483E+00 -2.15087E+00 -2.08705E+00 -2.02338E+00
  -1.95984E+00 -1.89645E+00 -1.83320E+00 -1.77009E+00 -1.70709E+00 -1.64420E+00 -1.58144E+00 -1.51879E+00 -1.45626E+00 -1.39382E+00
  -1.33147E+00 -1.26921E+00 -1.20704E+00 -1.14496E+00 -1.08295E+00 -1.02100E+00 -9.59104E-01 -8.97265E-01
 NY background values follow
     4.039E+01    4.001E+01    3.963E+01    3.926E+01    3.888E+01    3.850E+01    3.812E+01    3.775E+01    3.737E+01    3.699E+01
     3.662E+01    3.624E+01    3.587E+01    3.549E+01    3.512E+01    3.474E+01    3.437E+01    3.400E+01    3.363E+01    3.326E+01
     3.289E+01    3.252E+01    3.215E+01    3.179E+01    3.142E+01    3.106E+01    3.069E+01    3.033E+01    2.997E+01    2.961E+01
     2.925E+01    2.890E+01    2.854E+01    2.819E+01    2.784E+01    2.749E+01    2.714E+01    2.679E+01    2.645E+01    2.611E+01
     2.576E+01    2.543E+01    2.509E+01    2.475E+01    2.442E+01    2.409E+01    2.376E+01    2.344E+01    2.311E+01    2.279E+01
     2.247E+01    2.215E+01    2.184E+01    2.152E+01    2.121E+01    2.091E+01    2.060E+01    2.030E+01    1.999E+01    1.970E+01
     1.940E+01    1.910E+01    1.881E+01    1.852E+01    1.823E+01    1.795E+01    1.766E+01    1.738E+01    1.710E+01    1.682E+01
     1.655E+01    1.628E+01    1.601E+01    1.574E+01    1.547E+01    1.521E+01    1.495E+01    1.469E+01    1.443E+01    1.418E+01
     1.393E+01    1.368E+01    1.343E+01    1.318E+01    1.294E+01    1.270E+01    1.246E+01    1.223E+01    1.199E+01    1.176E+01
     1.153E+01    1.130E+01    1.108E+01    1.086E+01    1.064E+01    1.042E+01    1.020E+01    9.986E+00    9.774E+00    9.564E+00
     9.356E+00    9.149E+00    8.945E+00    8.743E+00    8.542E+00    8.343E+00    8.146E+00    7.951E+00    7.757E+00    7.565E+00
     7.375E+00    7.187E+00    7.000E+00    6.814E+00    6.630E+00    6.448E+00    6.267E+00    6.087E+00    5.909E+00    5.732E+00
     5.557E+00    5.382E+00    5.209E+00    5.038E+00    4.867E+00    4.698E+00    4.529E+00    4.362E+00    4.196E+00    4.031E+00
     3.867E+00    3.704E+00    3.542E+00    3.380E+00    3.220E+00    3.060E+00    2.901E+00    2.743E+00    2.586E+00    2.429E+00
     2.273E+00    2.118E+00    1.964E+00    1.810E+00    1.657E+00    1.505E+00    1.353E+00    1.202E+00    1.052E+00    9.018E-01
     7.526E-01    6.041E-01    4.561E-01    3.087E-01    1.619E-01    1.565E-02   -1.301E-01   -2.753E-01   -4.199E-01   -5.641E-01
    -7.078E-01   -8.510E-01   -9.937E-01   -1.136E+00   -1.278E+00   -1.419E+00   -1.560E+00   -1.701E+00   -1.841E+00   -1.980E+00
    -2.120E+00   -2.259E+00   -2.397E+00   -2.536E+00   -2.674E+00   -2.811E+00   -2.949E+00   -3.086E+00   -3.223E+00   -3.359E+00
    -3.495E+00   -3.631E+00   -3.767E+00   -3.903E+00   -4.038E+00   -4.173E+00   -4.308E+00   -4.442E+00   -4.576E+00   -4.709E+00
    -4.843E+00   -4.976E+00   -5.108E+00   -5.240E+00   -5.372E+00   -5.503E+00   -5.633E+00   -5.763E+00   -5.893E+00   -6.022E+00
    -6.151E+00   -6.279E+00   -6.406E+00   -6.533E+00   -6.659E+00   -6.785E+00   -6.910E+00   -7.034E+00   -7.158E+00   -7.281E+00
    -7.403E+00   -7.525E+00   -7.645E+00   -7.765E+00   -7.884E+00   -8.003E+00   -8.121E+00   -8.237E+00   -8.353E+00   -8.468E+00
    -8.583E+00   -8.696E+00   -8.808E+00   -8.920E+00   -9.030E+00   -9.140E+00   -9.249E+00   -9.356E+00   -9.463E+00   -9.568E+00
    -9.673E+00   -9.776E+00   -9.879E+00   -9.980E+00   -1.008E+01   -1.018E+01   -1.028E+01   -1.037E+01   -1.047E+01   -1.056E+01
    -1.066E+01   -1.075E+01   -1.084E+01   -1.093E+01   -1.102E+01   -1.110E+01   -1.119E+01   -1.127E+01   -1.136E+01   -1.144E+01
    -1.152E+01   -1.160E+01   -1.168E+01   -1.175E+01   -1.183E+01   -1.190E+01   -1.197E+01   -1.204E+01   -1.211E+01   -1.218E+01
    -1.224E+01   -1.231E+01   -1.237E+01   -1.243E+01   -1.249E+01   -1.255E+01   -1.261E+01   -1.266E+01   -1.271E+01   -1.277E+01
    -1.282E+01   -1.286E+01   -1.291E+01   -1.295E+01   -1.300E+01   -1.304E+01   -1.308E+01   -1.312E+01   -1.315E+01   -1.319E+01
    -1.322E+01   -1.325E+01   -1.328E+01   -1.331E+01   -1.333E+01   -1.336E+01   -1.338E+01   -1.340E+01   -1.342E+01   -1.344E+01
    -1.345E+01   -1.347E+01   -1.348E+01   -1.349E+01   -1.350E+01   -1.351E+01   -1.351E+01   -1.352E+01   -1.352E+01   -1.352E+01
    -1.352E+01   -1.352E+01   -1.352E+01   -1.351E+01   -1.351E+01   -1.350E+01   -1.349E+01   -1.348E+01   -1.346E+01   -1.345E+01
    -1.343E+01   -1.341E+01   -1.340E+01   -1.337E+01   -1.335E+01   -1.333E+01   -1.330E+01   -1.328E+01   -1.325E+01   -1.322E+01
    -1.319E+01   -1.315E+01   -1.312E+01   -1.308E+01   -1.304E+01   -1.301E+01   -1.297E+01   -1.293E+01   -1.288E+01   -1.284E+01
    -1.279E+01   -1.275E+01   -1.270E+01   -1.265E+01   -1.260E+01   -1.255E+01   -1.250E+01   -1.245E+01   -1.240E+01   -1.234E+01
    -1.229E+01   -1.223E+01   -1.217E+01   -1.212E+01   -1.206E+01   -1.200E+01   -1.194E+01   -1.188E+01   -1.182E+01   -1.175E+01
    -1.169E+01   -1.163E+01   -1.156E+01   -1.150E+01   -1.143E+01   -1.137E+01   -1.130E+01   -1.124E+01   -1.117E+01   -1.110E+01
    -1.104E+01   -1.097E+01   -1.090E+01   -1.083E+01   -1.076E+01   -1.069E+01   -1.062E+01   -1.055E+01   -1.048E+01   -1.041E+01
    -1.034E+01   -1.027E+01   -1.020E+01   -1.013E+01   -1.006E+01   -9.986E+00   -9.914E+00   -9.842E+00   -9.769E+00   -9.697E+00
    -9.623E+00   -9.550E+00   -9.476E+00   -9.403E+00   -9.328E+00   -9.254E+00   -9.179E+00   -9.105E+00   -9.030E+00   -8.954E+00
    -8.879E+00   -8.803E+00   -8.727E+00   -8.651E+00   -8.574E+00   -8.497E+00   -8.421E+00   -8.343E+00   -8.266E+00   -8.188E+00
    -8.111E+00   -8.033E+00   -7.954E+00   -7.876E+00   -7.797E+00   -7.719E+00   -7.640E+00   -7.560E+00   -7.481E+00   -7.401E+00
    -7.322E+00   -7.242E+00   -7.162E+00   -7.081E+00   -7.001E+00   -6.921E+00   -6.840E+00   -6.760E+00   -6.679E+00   -6.599E+00
    -6.518E+00   -6.437E+00   -6.356E+00   -6.276E+00   -6.195E+00   -6.115E+00   -6.034E+00   -5.953E+00   -5.873E+00   -5.793E+00
    -5.712E+00   -5.632E+00   -5.552E+00   -5.473E+00   -5.393E+00   -5.313E+00   -5.234E+00   -5.155E+00   -5.076E+00   -4.997E+00
    -4.919E+00   -4.841E+00   -4.763E+00   -4.685E+00   -4.608E+00   -4.531E+00   -4.454E+00   -4.378E+00   -4.302E+00   -4.226E+00
    -4.151E+00   -4.076E+00   -4.002E+00   -3.928E+00   -3.854E+00   -3.781E+00   -3.708E+00   -3.636E+00   -3.563E+00   -3.492E+00
    -3.420E+00   -3.349E+00   -3.279E+00   -3.208E+00   -3.138E+00   -3.069E+00   -3.000E+00   -2.930E+00   -2.862E+00   -2.793E+00
    -2.725E+00   -2.657E+00   -2.590E+00   -2.523E+00   -2.456E+00   -2.389E+00   -2.322E+00   -2.256E+00   -2.190E+00   -2.124E+00
    -2.058E+00   -1.993E+00   -1.928E+00   -1.863E+00   -1.798E+00   -1.733E+00   -1.669E+00   -1.605E+00   -1.540E+00   -1.476E+00
    -1.413E+00   -1.349E+00   -1.285E+00   -1.222E+00   -1.158E+00   -1.095E+00   -1.032E+00   -9.691E-01
 Asp      Conc. = 1.08E+01
