 LCModel (Version 6.3-1L) Copyright: S.W. Provencher.          Ref.: Magn. Reson. Med. 30:672-679 (1993).                
 Slice#2 Row#7 Col#13  K_02_press_1_raw_act
 36 lines in following concentration table = NCONC+1
    Conc.  %SD /Cr+PCr  Metabolite                                         
  173.923  39%  10.073 Ala                                                 
   58.234  90%   3.373 Asp                                                 
   17.267 143%   1.000 Cr                                                  
    0.000 999%   0.000 PCr                                                 
   16.194 197%   0.938 GABA                                                
   22.782 138%   1.319 Glc                                                 
    0.000 999%   0.000 Gln                                                 
  499.766  31%  28.944 Glu                                                 
    0.000 999%   0.000 GPC                                                 
    0.000 999%   0.000 PCh                                                 
    0.000 999%   0.000 GSH                                                 
    1.728 999%   0.100 Ins                                                 
    0.000 999%   0.000 Lac                                                 
  769.288  18%  44.553 NAA                                                 
   86.709 162%   5.022 NAAG                                                
    0.585 999% 3.4E-02 Scyllo                                              
   48.635 103%   2.817 Tau                                                 
    1.728 331%   0.100 -CrCH2                                              
    0.000 999%   0.000 GPC+PCh                                             
  855.997   8%  49.575 NAA+NAAG                                            
   17.267 143%   1.000 Cr+PCr                                              
  499.766  31%  28.944 Glu+Gln                                             
 2.71E+04   9% 1.6E+03 Lip13a                                              
    0.000 999%   0.000 Lip13b                                              
 7.44E+03  11% 431.170 Lip09                                               
    0.000 999%   0.000 MM09                                                
 2.02E+03  25% 117.186 Lip20                                               
 1.11E+03  36%  64.103 MM20                                                
    0.000 999%   0.000 MM12                                                
 6.68E+03  19% 386.996 MM14                                                
 4.47E+03  21% 258.985 MM17                                                
 2.71E+04   9% 1.6E+03 Lip13a+Lip13b                                       
 3.38E+04   6% 2.0E+03 MM14+Lip13a+Lip13b+MM12                             
 7.44E+03  11% 431.170 MM09+Lip09                                          
 3.13E+03  14% 181.289 MM20+Lip20                                          
   6 lines in following misc. output table
  FWHM = 0.054 ppm    S/N =  19                                            
  Data shift = 0.000 ppm                                                   
  Ph: -70 deg     -24.0 deg/ppm                                            
  alphaB,S = 2.4E+00,   3.7E+01                                            
   14 spline knots.   Ns = 9(1)                                            
  (14) 5 infls.   (14) 3 extrs.                                            
  498 points on ppm-axis = NY
      4.000000     3.992357     3.984714     3.977070     3.969427     3.961784     3.954141     3.946497     3.938854     3.931211
      3.923568     3.915925     3.908281     3.900638     3.892995     3.885352     3.877708     3.870065     3.862422     3.854779
      3.847136     3.839492     3.831849     3.824206     3.816563     3.808919     3.801276     3.793633     3.785990     3.778347
      3.770703     3.763060     3.755417     3.747774     3.740130     3.732487     3.724844     3.717201     3.709558     3.701914
      3.694271     3.686628     3.678985     3.671341     3.663698     3.656055     3.648412     3.640769     3.633125     3.625482
      3.617839     3.610196     3.602552     3.594909     3.587266     3.579623     3.571980     3.564336     3.556693     3.549050
      3.541407     3.533763     3.526120     3.518477     3.510834     3.503191     3.495547     3.487904     3.480261     3.472618
      3.464974     3.457331     3.449688     3.442045     3.434402     3.426758     3.419115     3.411472     3.403829     3.396185
      3.388542     3.380899     3.373256     3.365613     3.357969     3.350326     3.342683     3.335040     3.327396     3.319753
      3.312110     3.304467     3.296824     3.289180     3.281537     3.273894     3.266251     3.258607     3.250964     3.243321
      3.235678     3.228034     3.220391     3.212748     3.205105     3.197462     3.189818     3.182175     3.174532     3.166889
      3.159245     3.151602     3.143959     3.136316     3.128673     3.121029     3.113386     3.105743     3.098100     3.090456
      3.082813     3.075170     3.067527     3.059884     3.052240     3.044597     3.036954     3.029311     3.021667     3.014024
      3.006381     2.998738     2.991095     2.983451     2.975808     2.968165     2.960522     2.952878     2.945235     2.937592
      2.929949     2.922306     2.914662     2.907019     2.899376     2.891733     2.884089     2.876446     2.868803     2.861160
      2.853517     2.845873     2.838230     2.830587     2.822944     2.815300     2.807657     2.800014     2.792371     2.784728
      2.777084     2.769441     2.761798     2.754155     2.746511     2.738868     2.731225     2.723582     2.715939     2.708295
      2.700652     2.693009     2.685366     2.677722     2.670079     2.662436     2.654793     2.647150     2.639506     2.631863
      2.624220     2.616577     2.608933     2.601290     2.593647     2.586004     2.578361     2.570717     2.563074     2.555431
      2.547788     2.540144     2.532501     2.524858     2.517215     2.509572     2.501928     2.494285     2.486642     2.478999
      2.471355     2.463712     2.456069     2.448426     2.440783     2.433139     2.425496     2.417853     2.410210     2.402566
      2.394923     2.387280     2.379637     2.371994     2.364350     2.356707     2.349064     2.341421     2.333777     2.326134
      2.318491     2.310848     2.303205     2.295561     2.287918     2.280275     2.272632     2.264988     2.257345     2.249702
      2.242059     2.234416     2.226772     2.219129     2.211486     2.203843     2.196199     2.188556     2.180913     2.173270
      2.165627     2.157983     2.150340     2.142697     2.135054     2.127410     2.119767     2.112124     2.104481     2.096838
      2.089194     2.081551     2.073908     2.066265     2.058621     2.050978     2.043335     2.035692     2.028049     2.020405
      2.012762     2.005119     1.997476     1.989833     1.982190     1.974546     1.966903     1.959260     1.951617     1.943974
      1.936331     1.928688     1.921045     1.913402     1.905759     1.898115     1.890472     1.882829     1.875186     1.867543
      1.859900     1.852257     1.844614     1.836971     1.829327     1.821684     1.814041     1.806398     1.798755     1.791112
      1.783469     1.775826     1.768183     1.760540     1.752896     1.745253     1.737610     1.729967     1.722324     1.714681
      1.707038     1.699395     1.691752     1.684108     1.676465     1.668822     1.661179     1.653536     1.645893     1.638250
      1.630607     1.622964     1.615321     1.607677     1.600034     1.592391     1.584748     1.577105     1.569462     1.561819
      1.554176     1.546533     1.538890     1.531246     1.523603     1.515960     1.508317     1.500674     1.493031     1.485388
      1.477745     1.470102     1.462458     1.454815     1.447172     1.439529     1.431886     1.424243     1.416600     1.408957
      1.401314     1.393671     1.386027     1.378384     1.370741     1.363098     1.355455     1.347812     1.340169     1.332526
      1.324883     1.317240     1.309596     1.301953     1.294310     1.286667     1.279024     1.271381     1.263738     1.256095
      1.248452     1.240808     1.233165     1.225522     1.217879     1.210236     1.202593     1.194950     1.187307     1.179664
      1.172021     1.164377     1.156734     1.149091     1.141448     1.133805     1.126162     1.118519     1.110876     1.103233
      1.095590     1.087946     1.080303     1.072660     1.065017     1.057374     1.049731     1.042088     1.034445     1.026802
      1.019158     1.011515     1.003872     0.996229     0.988586     0.980943     0.973300     0.965657     0.958014     0.950371
      0.942727     0.935084     0.927441     0.919798     0.912155     0.904512     0.896869     0.889226     0.881583     0.873940
      0.866296     0.858653     0.851010     0.843367     0.835724     0.828081     0.820438     0.812795     0.805152     0.797508
      0.789865     0.782222     0.774579     0.766936     0.759293     0.751650     0.744007     0.736364     0.728721     0.721077
      0.713434     0.705791     0.698148     0.690505     0.682862     0.675219     0.667576     0.659933     0.652290     0.644646
      0.637003     0.629360     0.621717     0.614074     0.606431     0.598788     0.591145     0.583502     0.575858     0.568215
      0.560572     0.552929     0.545286     0.537643     0.530000     0.522357     0.514714     0.507071     0.499427     0.491784
      0.484141     0.476498     0.468855     0.461212     0.453569     0.445925     0.438282     0.430639     0.422996     0.415353
      0.407710     0.400067     0.392424     0.384780     0.377137     0.369494     0.361851     0.354208     0.346565     0.338922
      0.331278     0.323635     0.315992     0.308349     0.300706     0.293063     0.285420     0.277777     0.270133     0.262490
      0.254847     0.247204     0.239561     0.231918     0.224275     0.216631     0.208988     0.201345
 NY phased data points follow
   8.05107E+00  1.07485E+01  1.16472E+01  1.21911E+01  1.18039E+01  1.21799E+01  1.08322E+01  1.16596E+01  1.46616E+01  1.28612E+01
   1.10335E+01  1.40030E+01  1.11927E+01  1.49642E+01  1.21955E+01  1.39636E+01  1.34174E+01  1.27621E+01  1.62979E+01  1.19173E+01
   1.01156E+01  1.39480E+01  1.50084E+01  9.91158E+00  1.25323E+01  1.01049E+01  1.30172E+01  1.04865E+01  1.20695E+01  1.18830E+01
   1.08702E+01  1.07898E+01  1.50507E+01  1.45195E+01  1.07212E+01  1.35562E+01  1.46281E+01  1.48830E+01  1.26721E+01  1.44693E+01
   1.35676E+01  1.21325E+01  1.42414E+01  1.01196E+01  1.14283E+01  1.45961E+01  9.72553E+00  1.22619E+01  1.20419E+01  1.41222E+01
   1.25305E+01  9.43871E+00  1.23808E+01  1.20502E+01  1.40520E+01  1.01028E+01  1.48745E+01  1.13151E+01  1.24045E+01  1.32103E+01
   1.27792E+01  1.37760E+01  1.29926E+01  1.35467E+01  1.10996E+01  1.42779E+01  1.39718E+01  1.42438E+01  1.45918E+01  1.21410E+01
   1.31258E+01  1.22949E+01  1.33519E+01  1.38448E+01  1.35758E+01  1.31167E+01  1.41224E+01  1.55491E+01  1.45615E+01  1.15205E+01
   1.25019E+01  1.36044E+01  1.16755E+01  1.46935E+01  1.05115E+01  1.23459E+01  1.48719E+01  1.09373E+01  1.18552E+01  1.19897E+01
   1.23619E+01  1.36170E+01  1.14878E+01  1.13131E+01  1.15668E+01  1.21250E+01  1.29713E+01  1.40865E+01  1.09398E+01  1.37818E+01
   1.43421E+01  1.24738E+01  1.17437E+01  1.33874E+01  1.36947E+01  1.49304E+01  1.36461E+01  1.44654E+01  1.42115E+01  1.39035E+01
   1.54725E+01  1.40717E+01  1.57033E+01  1.49674E+01  1.42434E+01  1.22265E+01  1.39469E+01  1.42632E+01  1.59992E+01  1.40513E+01
   1.32834E+01  1.21573E+01  1.75994E+01  1.51571E+01  1.60754E+01  1.67488E+01  1.23329E+01  1.39640E+01  1.35045E+01  1.45224E+01
   1.71603E+01  1.73332E+01  1.82495E+01  1.84261E+01  1.75573E+01  1.66273E+01  1.45305E+01  1.50127E+01  1.69960E+01  1.67857E+01
   1.79993E+01  1.55954E+01  1.58216E+01  1.50073E+01  1.57072E+01  1.84500E+01  1.70295E+01  1.53500E+01  1.60525E+01  1.63717E+01
   1.74956E+01  1.57078E+01  1.57694E+01  1.63628E+01  1.68944E+01  1.48552E+01  1.42032E+01  1.78095E+01  1.56874E+01  1.66984E+01
   1.53325E+01  1.62150E+01  1.47533E+01  1.67341E+01  1.51721E+01  1.69624E+01  1.68456E+01  1.37058E+01  1.61079E+01  1.50746E+01
   1.45582E+01  1.36951E+01  1.29836E+01  1.58169E+01  1.87639E+01  1.27824E+01  1.36716E+01  1.32928E+01  1.43573E+01  1.50839E+01
   1.59846E+01  1.37906E+01  1.45306E+01  1.39672E+01  1.77714E+01  1.35187E+01  1.75321E+01  1.59311E+01  1.60732E+01  1.53706E+01
   1.36354E+01  1.65890E+01  1.61936E+01  1.31908E+01  1.63966E+01  1.60326E+01  1.40308E+01  1.50039E+01  1.52809E+01  1.61996E+01
   1.50214E+01  1.46370E+01  1.69237E+01  1.78004E+01  1.74608E+01  2.07246E+01  1.84494E+01  1.68762E+01  1.90976E+01  1.55638E+01
   1.84917E+01  1.77589E+01  2.05269E+01  2.06119E+01  1.85601E+01  2.03442E+01  2.21944E+01  1.91076E+01  1.69625E+01  1.94720E+01
   1.72453E+01  1.78249E+01  1.69141E+01  1.56920E+01  1.81068E+01  1.94968E+01  2.18045E+01  1.86989E+01  2.11268E+01  2.29008E+01
   1.78814E+01  2.37945E+01  2.06570E+01  2.17902E+01  2.23697E+01  2.39481E+01  2.44091E+01  2.14491E+01  2.42689E+01  2.38449E+01
   2.19493E+01  2.42152E+01  2.29279E+01  2.35213E+01  2.63867E+01  2.66776E+01  2.81092E+01  2.69976E+01  2.68003E+01  2.88491E+01
   3.06808E+01  3.43514E+01  3.06003E+01  3.79465E+01  3.43933E+01  4.01891E+01  4.62943E+01  5.27054E+01  5.67332E+01  5.52861E+01
   4.98921E+01  4.77275E+01  4.27794E+01  3.80739E+01  3.66300E+01  3.22716E+01  2.79253E+01  2.83391E+01  2.57385E+01  2.58056E+01
   2.75105E+01  2.38271E+01  2.51612E+01  2.64996E+01  2.59599E+01  2.94963E+01  2.67943E+01  2.83401E+01  2.95323E+01  2.66759E+01
   2.69243E+01  2.96783E+01  3.12069E+01  2.74533E+01  3.17903E+01  3.22146E+01  3.19307E+01  3.39361E+01  3.11692E+01  3.47964E+01
   3.26008E+01  3.54643E+01  3.49330E+01  3.71327E+01  3.32485E+01  3.78958E+01  3.80000E+01  3.90229E+01  4.17525E+01  4.22814E+01
   4.22178E+01  4.32304E+01  4.29691E+01  4.27772E+01  4.39458E+01  4.60489E+01  4.75639E+01  4.62240E+01  4.64984E+01  5.14700E+01
   5.02708E+01  5.07294E+01  5.33262E+01  5.61326E+01  5.61753E+01  5.46485E+01  5.89681E+01  5.84455E+01  5.94541E+01  6.02674E+01
   6.08556E+01  6.31330E+01  6.22142E+01  6.44953E+01  6.60941E+01  6.85245E+01  6.81057E+01  6.81830E+01  7.07252E+01  6.82802E+01
   7.11429E+01  7.12961E+01  7.42716E+01  7.82991E+01  7.57395E+01  7.34819E+01  7.79537E+01  7.98678E+01  7.90400E+01  8.11999E+01
   8.06344E+01  8.25606E+01  8.28996E+01  8.13886E+01  8.14215E+01  8.14429E+01  8.24484E+01  7.94736E+01  7.99240E+01  8.03269E+01
   8.01118E+01  7.79111E+01  8.05132E+01  7.74860E+01  7.96678E+01  7.63352E+01  7.56208E+01  7.64495E+01  7.45775E+01  7.33697E+01
   7.39065E+01  7.24495E+01  7.19783E+01  7.59510E+01  7.27429E+01  6.94240E+01  7.00434E+01  7.14115E+01  6.87848E+01  6.87139E+01
   6.74368E+01  6.86311E+01  6.89724E+01  6.65124E+01  6.42356E+01  6.45615E+01  6.54042E+01  6.09144E+01  6.07879E+01  6.25584E+01
   6.17280E+01  5.85743E+01  5.94411E+01  5.78041E+01  5.67799E+01  5.73996E+01  5.96361E+01  5.50037E+01  5.48984E+01  5.31749E+01
   5.54403E+01  5.29653E+01  5.56595E+01  5.21575E+01  5.16175E+01  5.15479E+01  5.26616E+01  5.17579E+01  5.13961E+01  4.90242E+01
   4.82499E+01  4.94385E+01  4.80436E+01  5.10598E+01  4.90787E+01  4.70762E+01  4.43415E+01  4.51930E+01  4.54295E+01  4.44312E+01
   4.27951E+01  4.19228E+01  4.11862E+01  4.02510E+01  3.91889E+01  3.70875E+01  3.76438E+01  3.65306E+01  3.48469E+01  3.63880E+01
   3.55132E+01  3.29344E+01  3.20082E+01  3.27301E+01  3.41247E+01  3.02786E+01  2.88561E+01  2.95590E+01  2.42336E+01  2.86394E+01
   2.80035E+01  2.74377E+01  2.66574E+01  2.71138E+01  2.58811E+01  2.51700E+01  2.43584E+01  2.33845E+01  2.26715E+01  2.05511E+01
   2.07249E+01  2.18488E+01  2.22861E+01  2.11866E+01  2.02266E+01  2.15826E+01  1.81897E+01  1.86090E+01  1.85372E+01  1.86084E+01
   1.74547E+01  1.73618E+01  1.82185E+01  1.60422E+01  2.07345E+01  1.40275E+01  1.47774E+01  1.54548E+01  1.47628E+01  1.53067E+01
   1.37162E+01  1.56544E+01  1.37543E+01  1.36507E+01  1.14938E+01  1.28238E+01  1.20850E+01  1.01374E+01  1.33532E+01  1.03831E+01
   1.18227E+01  1.09994E+01  1.12040E+01  1.38017E+01  1.00213E+01  9.22182E+00  1.18197E+01  1.17740E+01  1.08291E+01  9.41201E+00
   8.67796E+00  7.98140E+00  9.42993E+00  1.34589E+01  8.95528E+00  7.72386E+00  8.38740E+00  9.57099E+00  7.50063E+00  8.87758E+00
   8.70402E+00  9.68177E+00  8.68151E+00  9.59461E+00  1.05776E+01  6.95431E+00  8.24135E+00  5.14973E+00
 NY points of the fit to the data follow
   1.20202E+01  1.20492E+01  1.20990E+01  1.21356E+01  1.21247E+01  1.21009E+01  1.21237E+01  1.22195E+01  1.23376E+01  1.24066E+01
   1.24163E+01  1.23959E+01  1.23726E+01  1.23370E+01  1.22781E+01  1.22258E+01  1.22263E+01  1.22816E+01  1.23806E+01  1.24910E+01
   1.26553E+01  1.28738E+01  1.30335E+01  1.30092E+01  1.27907E+01  1.24442E+01  1.20624E+01  1.17632E+01  1.17282E+01  1.20264E+01
   1.25513E+01  1.30910E+01  1.33967E+01  1.33843E+01  1.31540E+01  1.28641E+01  1.26377E+01  1.25169E+01  1.24702E+01  1.24397E+01
   1.24101E+01  1.24132E+01  1.24674E+01  1.25643E+01  1.26695E+01  1.27332E+01  1.27439E+01  1.27184E+01  1.26722E+01  1.26328E+01
   1.26158E+01  1.26127E+01  1.26150E+01  1.26173E+01  1.26183E+01  1.26211E+01  1.26297E+01  1.26461E+01  1.26669E+01  1.26843E+01
   1.27078E+01  1.27351E+01  1.27660E+01  1.27992E+01  1.28269E+01  1.28397E+01  1.28490E+01  1.28591E+01  1.28572E+01  1.28585E+01
   1.28893E+01  1.29550E+01  1.30375E+01  1.31055E+01  1.31222E+01  1.30863E+01  1.30313E+01  1.29876E+01  1.29698E+01  1.29773E+01
   1.29930E+01  1.30048E+01  1.30180E+01  1.30374E+01  1.30568E+01  1.30734E+01  1.30913E+01  1.31121E+01  1.31288E+01  1.31337E+01
   1.31222E+01  1.30871E+01  1.30593E+01  1.30767E+01  1.31444E+01  1.32406E+01  1.33359E+01  1.34002E+01  1.34295E+01  1.34471E+01
   1.34610E+01  1.34763E+01  1.35004E+01  1.35314E+01  1.35621E+01  1.35961E+01  1.36350E+01  1.36767E+01  1.37244E+01  1.37741E+01
   1.38197E+01  1.38645E+01  1.39124E+01  1.39624E+01  1.40146E+01  1.40708E+01  1.41326E+01  1.42091E+01  1.43150E+01  1.44180E+01
   1.45041E+01  1.46143E+01  1.47904E+01  1.50237E+01  1.52556E+01  1.54253E+01  1.55117E+01  1.55433E+01  1.55500E+01  1.55397E+01
   1.55242E+01  1.55144E+01  1.55062E+01  1.55012E+01  1.55175E+01  1.55669E+01  1.56462E+01  1.57344E+01  1.58035E+01  1.58588E+01
   1.59257E+01  1.60146E+01  1.61165E+01  1.62113E+01  1.62866E+01  1.63410E+01  1.63862E+01  1.64363E+01  1.64891E+01  1.65364E+01
   1.65706E+01  1.65686E+01  1.65366E+01  1.65521E+01  1.66032E+01  1.66226E+01  1.65372E+01  1.63126E+01  1.60907E+01  1.60142E+01
   1.61003E+01  1.62242E+01  1.62739E+01  1.62104E+01  1.60541E+01  1.58716E+01  1.56949E+01  1.55081E+01  1.53700E+01  1.52543E+01
   1.50544E+01  1.47612E+01  1.44558E+01  1.43073E+01  1.43542E+01  1.44802E+01  1.45219E+01  1.44354E+01  1.43187E+01  1.43355E+01
   1.44661E+01  1.45986E+01  1.46563E+01  1.46892E+01  1.47898E+01  1.50151E+01  1.53453E+01  1.56948E+01  1.59767E+01  1.61359E+01
   1.62248E+01  1.63375E+01  1.65075E+01  1.66541E+01  1.67251E+01  1.66962E+01  1.65730E+01  1.64750E+01  1.64831E+01  1.66081E+01
   1.68463E+01  1.70678E+01  1.71865E+01  1.71816E+01  1.70772E+01  1.69553E+01  1.68173E+01  1.66819E+01  1.65000E+01  1.63057E+01
   1.63929E+01  1.69453E+01  1.78741E+01  1.87701E+01  1.92770E+01  1.93886E+01  1.92050E+01  1.87077E+01  1.79473E+01  1.71555E+01
   1.66941E+01  1.67553E+01  1.72604E+01  1.80406E+01  1.89469E+01  1.98793E+01  2.07220E+01  2.13668E+01  2.18378E+01  2.21778E+01
   2.24123E+01  2.25642E+01  2.26553E+01  2.27679E+01  2.29248E+01  2.31163E+01  2.33068E+01  2.34664E+01  2.35744E+01  2.37099E+01
   2.39623E+01  2.43415E+01  2.48113E+01  2.53308E+01  2.58613E+01  2.63577E+01  2.68019E+01  2.72483E+01  2.76059E+01  2.79929E+01
   2.89267E+01  3.13320E+01  3.36417E+01  3.49786E+01  3.67109E+01  4.05836E+01  4.65264E+01  5.22388E+01  5.51239E+01  5.43347E+01
   5.12150E+01  4.73348E+01  4.32311E+01  3.93242E+01  3.58808E+01  3.26286E+01  2.96671E+01  2.74202E+01  2.61375E+01  2.59454E+01
   2.63199E+01  2.65758E+01  2.66708E+01  2.67489E+01  2.68365E+01  2.69345E+01  2.70489E+01  2.71916E+01  2.73696E+01  2.75909E+01
   2.78623E+01  2.81864E+01  2.85654E+01  2.90045E+01  2.94994E+01  3.00415E+01  3.06296E+01  3.12669E+01  3.19542E+01  3.26878E+01
   3.34617E+01  3.42724E+01  3.51172E+01  3.59908E+01  3.68857E+01  3.77963E+01  3.87185E+01  3.96476E+01  4.05786E+01  4.15058E+01
   4.24237E+01  4.33281E+01  4.42150E+01  4.50814E+01  4.59265E+01  4.67510E+01  4.75570E+01  4.83484E+01  4.91308E+01  4.99113E+01
   5.06981E+01  5.15002E+01  5.23267E+01  5.31879E+01  5.40937E+01  5.50548E+01  5.60837E+01  5.72022E+01  5.84433E+01  5.96959E+01
   6.08970E+01  6.22403E+01  6.38005E+01  6.54182E+01  6.67734E+01  6.76745E+01  6.82828E+01  6.89147E+01  6.95541E+01  7.01763E+01
   7.09294E+01  7.20618E+01  7.35772E+01  7.52713E+01  7.68714E+01  7.81950E+01  7.92513E+01  8.00494E+01  8.05572E+01  8.08591E+01
   8.10110E+01  8.09967E+01  8.08575E+01  8.06546E+01  8.04533E+01  8.03031E+01  8.01637E+01  7.99891E+01  7.97817E+01  7.95482E+01
   7.92910E+01  7.90109E+01  7.87077E+01  7.83804E+01  7.80274E+01  7.76465E+01  7.72354E+01  7.67918E+01  7.63140E+01  7.58000E+01
   7.52488E+01  7.46597E+01  7.40329E+01  7.33692E+01  7.26705E+01  7.19390E+01  7.11777E+01  7.03902E+01  6.95806E+01  6.87537E+01
   6.79142E+01  6.70672E+01  6.62176E+01  6.53707E+01  6.45313E+01  6.37040E+01  6.28934E+01  6.21030E+01  6.13363E+01  6.05961E+01
   5.98848E+01  5.92039E+01  5.85544E+01  5.79365E+01  5.73499E+01  5.67935E+01  5.62659E+01  5.57649E+01  5.52875E+01  5.48307E+01
   5.43909E+01  5.39640E+01  5.35459E+01  5.31322E+01  5.27184E+01  5.23000E+01  5.18727E+01  5.14322E+01  5.09749E+01  5.04969E+01
   4.99953E+01  4.94674E+01  4.89112E+01  4.83253E+01  4.77086E+01  4.70608E+01  4.63823E+01  4.56738E+01  4.49368E+01  4.41732E+01
   4.33853E+01  4.25755E+01  4.17468E+01  4.09024E+01  4.00457E+01  3.91799E+01  3.83083E+01  3.74343E+01  3.65610E+01  3.56916E+01
   3.48287E+01  3.39752E+01  3.31331E+01  3.23048E+01  3.14920E+01  3.06963E+01  2.99190E+01  2.91613E+01  2.84237E+01  2.77070E+01
   2.70116E+01  2.63378E+01  2.56855E+01  2.50546E+01  2.44449E+01  2.38561E+01  2.32878E+01  2.27396E+01  2.22109E+01  2.17010E+01
   2.12094E+01  2.07354E+01  2.02785E+01  1.98380E+01  1.94131E+01  1.90033E+01  1.86078E+01  1.82262E+01  1.78578E+01  1.75020E+01
   1.71582E+01  1.68258E+01  1.65044E+01  1.61935E+01  1.58925E+01  1.56011E+01  1.53187E+01  1.50449E+01  1.47794E+01  1.45218E+01
   1.42717E+01  1.40288E+01  1.37926E+01  1.35631E+01  1.33398E+01  1.31225E+01  1.29109E+01  1.27047E+01  1.25037E+01  1.23078E+01
   1.21166E+01  1.19301E+01  1.17479E+01  1.15699E+01  1.13960E+01  1.12259E+01  1.10596E+01  1.08969E+01  1.07375E+01  1.05815E+01
   1.04286E+01  1.02788E+01  1.01320E+01  9.98791E+00  9.84655E+00  9.70782E+00  9.57164E+00  9.43793E+00  9.30657E+00  9.17745E+00
   9.05051E+00  8.92570E+00  8.80297E+00  8.68225E+00  8.56343E+00  8.44644E+00  8.33125E+00  8.21782E+00
 NY background values follow
     1.035E+01    1.035E+01    1.036E+01    1.037E+01    1.038E+01    1.038E+01    1.039E+01    1.040E+01    1.041E+01    1.041E+01
     1.042E+01    1.043E+01    1.044E+01    1.044E+01    1.045E+01    1.046E+01    1.046E+01    1.047E+01    1.048E+01    1.049E+01
     1.049E+01    1.050E+01    1.051E+01    1.051E+01    1.052E+01    1.053E+01    1.054E+01    1.054E+01    1.055E+01    1.056E+01
     1.056E+01    1.057E+01    1.058E+01    1.058E+01    1.059E+01    1.060E+01    1.060E+01    1.061E+01    1.062E+01    1.062E+01
     1.063E+01    1.064E+01    1.064E+01    1.065E+01    1.066E+01    1.066E+01    1.067E+01    1.068E+01    1.068E+01    1.069E+01
     1.069E+01    1.070E+01    1.071E+01    1.071E+01    1.072E+01    1.072E+01    1.073E+01    1.074E+01    1.074E+01    1.075E+01
     1.075E+01    1.076E+01    1.076E+01    1.077E+01    1.078E+01    1.078E+01    1.079E+01    1.079E+01    1.080E+01    1.080E+01
     1.081E+01    1.081E+01    1.082E+01    1.082E+01    1.083E+01    1.083E+01    1.084E+01    1.085E+01    1.085E+01    1.086E+01
     1.086E+01    1.087E+01    1.087E+01    1.088E+01    1.088E+01    1.088E+01    1.089E+01    1.089E+01    1.090E+01    1.090E+01
     1.091E+01    1.091E+01    1.092E+01    1.092E+01    1.093E+01    1.093E+01    1.094E+01    1.094E+01    1.094E+01    1.095E+01
     1.095E+01    1.096E+01    1.096E+01    1.097E+01    1.097E+01    1.097E+01    1.098E+01    1.098E+01    1.099E+01    1.099E+01
     1.099E+01    1.100E+01    1.100E+01    1.100E+01    1.101E+01    1.101E+01    1.101E+01    1.102E+01    1.102E+01    1.102E+01
     1.103E+01    1.103E+01    1.103E+01    1.104E+01    1.104E+01    1.104E+01    1.104E+01    1.105E+01    1.105E+01    1.105E+01
     1.105E+01    1.106E+01    1.106E+01    1.106E+01    1.106E+01    1.107E+01    1.107E+01    1.107E+01    1.107E+01    1.107E+01
     1.107E+01    1.107E+01    1.108E+01    1.108E+01    1.108E+01    1.108E+01    1.108E+01    1.108E+01    1.108E+01    1.108E+01
     1.108E+01    1.108E+01    1.108E+01    1.108E+01    1.108E+01    1.108E+01    1.108E+01    1.108E+01    1.108E+01    1.108E+01
     1.108E+01    1.108E+01    1.108E+01    1.108E+01    1.108E+01    1.108E+01    1.108E+01    1.108E+01    1.108E+01    1.108E+01
     1.108E+01    1.108E+01    1.108E+01    1.107E+01    1.107E+01    1.107E+01    1.107E+01    1.107E+01    1.107E+01    1.107E+01
     1.106E+01    1.106E+01    1.106E+01    1.106E+01    1.106E+01    1.105E+01    1.105E+01    1.105E+01    1.105E+01    1.105E+01
     1.104E+01    1.104E+01    1.104E+01    1.104E+01    1.103E+01    1.103E+01    1.103E+01    1.102E+01    1.102E+01    1.102E+01
     1.102E+01    1.101E+01    1.101E+01    1.101E+01    1.100E+01    1.100E+01    1.099E+01    1.099E+01    1.099E+01    1.098E+01
     1.098E+01    1.098E+01    1.097E+01    1.097E+01    1.096E+01    1.096E+01    1.095E+01    1.095E+01    1.094E+01    1.094E+01
     1.093E+01    1.093E+01    1.092E+01    1.092E+01    1.091E+01    1.091E+01    1.090E+01    1.090E+01    1.089E+01    1.089E+01
     1.088E+01    1.087E+01    1.087E+01    1.086E+01    1.086E+01    1.085E+01    1.084E+01    1.084E+01    1.083E+01    1.082E+01
     1.082E+01    1.081E+01    1.080E+01    1.079E+01    1.079E+01    1.078E+01    1.077E+01    1.076E+01    1.075E+01    1.075E+01
     1.074E+01    1.073E+01    1.072E+01    1.071E+01    1.070E+01    1.069E+01    1.068E+01    1.068E+01    1.067E+01    1.066E+01
     1.065E+01    1.064E+01    1.063E+01    1.062E+01    1.061E+01    1.059E+01    1.058E+01    1.057E+01    1.056E+01    1.055E+01
     1.054E+01    1.053E+01    1.052E+01    1.050E+01    1.049E+01    1.048E+01    1.047E+01    1.045E+01    1.044E+01    1.043E+01
     1.042E+01    1.040E+01    1.039E+01    1.038E+01    1.036E+01    1.035E+01    1.033E+01    1.032E+01    1.030E+01    1.029E+01
     1.027E+01    1.026E+01    1.024E+01    1.023E+01    1.021E+01    1.020E+01    1.018E+01    1.017E+01    1.015E+01    1.013E+01
     1.012E+01    1.010E+01    1.008E+01    1.006E+01    1.005E+01    1.003E+01    1.001E+01    9.994E+00    9.976E+00    9.958E+00
     9.939E+00    9.920E+00    9.902E+00    9.882E+00    9.863E+00    9.844E+00    9.824E+00    9.804E+00    9.784E+00    9.764E+00
     9.744E+00    9.723E+00    9.702E+00    9.681E+00    9.660E+00    9.639E+00    9.618E+00    9.596E+00    9.574E+00    9.552E+00
     9.530E+00    9.507E+00    9.485E+00    9.462E+00    9.439E+00    9.416E+00    9.392E+00    9.369E+00    9.345E+00    9.321E+00
     9.297E+00    9.273E+00    9.249E+00    9.224E+00    9.199E+00    9.174E+00    9.149E+00    9.124E+00    9.099E+00    9.073E+00
     9.047E+00    9.021E+00    8.995E+00    8.969E+00    8.942E+00    8.915E+00    8.888E+00    8.861E+00    8.834E+00    8.807E+00
     8.779E+00    8.751E+00    8.723E+00    8.695E+00    8.667E+00    8.638E+00    8.610E+00    8.581E+00    8.552E+00    8.523E+00
     8.494E+00    8.464E+00    8.434E+00    8.405E+00    8.375E+00    8.344E+00    8.314E+00    8.284E+00    8.253E+00    8.222E+00
     8.191E+00    8.160E+00    8.129E+00    8.097E+00    8.065E+00    8.033E+00    8.001E+00    7.969E+00    7.937E+00    7.904E+00
     7.872E+00    7.839E+00    7.806E+00    7.773E+00    7.739E+00    7.706E+00    7.672E+00    7.638E+00    7.604E+00    7.570E+00
     7.536E+00    7.501E+00    7.466E+00    7.432E+00    7.397E+00    7.361E+00    7.326E+00    7.291E+00    7.255E+00    7.219E+00
     7.183E+00    7.147E+00    7.111E+00    7.074E+00    7.038E+00    7.001E+00    6.964E+00    6.927E+00    6.890E+00    6.852E+00
     6.815E+00    6.777E+00    6.739E+00    6.701E+00    6.663E+00    6.624E+00    6.586E+00    6.547E+00    6.508E+00    6.469E+00
     6.430E+00    6.391E+00    6.352E+00    6.312E+00    6.272E+00    6.232E+00    6.192E+00    6.152E+00    6.112E+00    6.071E+00
     6.030E+00    5.990E+00    5.949E+00    5.907E+00    5.866E+00    5.825E+00    5.783E+00    5.741E+00    5.699E+00    5.657E+00
     5.615E+00    5.573E+00    5.530E+00    5.488E+00    5.445E+00    5.402E+00    5.359E+00    5.316E+00    5.272E+00    5.229E+00
     5.185E+00    5.142E+00    5.098E+00    5.054E+00    5.010E+00    4.966E+00    4.921E+00    4.877E+00    4.833E+00    4.788E+00
     4.744E+00    4.699E+00    4.654E+00    4.610E+00    4.565E+00    4.520E+00    4.475E+00    4.430E+00    4.385E+00    4.340E+00
     4.295E+00    4.250E+00    4.204E+00    4.159E+00    4.114E+00    4.069E+00    4.023E+00    3.978E+00    3.933E+00    3.888E+00
     3.842E+00    3.797E+00    3.752E+00    3.706E+00    3.661E+00    3.616E+00    3.571E+00    3.526E+00
 Ala      Conc. = 1.74E+02
