 LCModel (Version 6.3-1L) Copyright: S.W. Provencher.          Ref.: Magn. Reson. Med. 30:672-679 (1993).                
 Slice#1 Row#4 Col#14  K_02_press_1_raw_act
 36 lines in following concentration table = NCONC+1
    Conc.  %SD /Cr+PCr  Metabolite                                         
    0.000 999%   0.000 Ala                                                 
 1.88E+03  27%   0.000+Asp                                                 
    0.000 999%   0.000 Cr                                                  
    0.000 999%   0.000 PCr                                                 
  434.673  72%   0.000 GABA                                                
  988.351  31%   0.000 Glc                                                 
 1.80E+03 187%   0.000 Gln                                                 
 4.52E+03  97%   0.000 Glu                                                 
    0.000 999%   0.000 GPC                                                 
 1.34E+03  30%   0.000 PCh                                                 
 2.86E+03  32%   0.000 GSH                                                 
 1.93E+04  13%   0.000 Ins                                                 
    0.000 999%   0.000 Lac                                                 
 1.06E+04  11%   0.000 NAA                                                 
 3.87E+03  34%   0.000 NAAG                                                
  566.771  16%   0.000+Scyllo                                              
 2.24E+03  22%   0.000+Tau                                                 
   13.161 587%   0.000 -CrCH2                                              
 1.34E+03  13%   0.000 GPC+PCh                                             
 1.45E+04   6%   0.000 NAA+NAAG                                            
    0.000 999%   0.000 Cr+PCr                                              
 6.32E+03 102%   0.000 Glu+Gln                                             
 1.12E+05  17%   0.000 Lip13a                                              
 9.95E+03  86%   0.000 Lip13b                                              
 3.49E+04  13%   0.000 Lip09                                               
    0.000 999%   0.000 MM09                                                
 1.78E+04  17%   0.000 Lip20                                               
 5.95E+04   8%   0.000+MM20                                                
    0.000 999%   0.000 MM12                                                
 1.09E+04  45%   0.000 MM14                                                
    0.000 999%   0.000 MM17                                                
 1.22E+05  13%   0.000 Lip13a+Lip13b                                       
 1.33E+05  11%   0.000 MM14+Lip13a+Lip13b+MM12                             
 3.49E+04  13%   0.000 MM09+Lip09                                          
 7.73E+04   7%   0.000 MM20+Lip20                                          
   6 lines in following misc. output table
  FWHM = 0.229 ppm    S/N =  24                                            
  Data shift = 0.413 ppm                                                   
  Ph: 153 deg     219.7 deg/ppm                                            
  alphaB,S = 6.5E-01,   3.8E+02                                            
    8 spline knots.   Ns = 9(2)                                            
  (15) 1 infls.   ( 3) 1 extrs.                                            
  498 points on ppm-axis = NY
      4.000000     3.992357     3.984714     3.977070     3.969427     3.961784     3.954141     3.946497     3.938854     3.931211
      3.923568     3.915925     3.908281     3.900638     3.892995     3.885352     3.877708     3.870065     3.862422     3.854779
      3.847136     3.839492     3.831849     3.824206     3.816563     3.808919     3.801276     3.793633     3.785990     3.778347
      3.770703     3.763060     3.755417     3.747774     3.740130     3.732487     3.724844     3.717201     3.709558     3.701914
      3.694271     3.686628     3.678985     3.671341     3.663698     3.656055     3.648412     3.640769     3.633125     3.625482
      3.617839     3.610196     3.602552     3.594909     3.587266     3.579623     3.571980     3.564336     3.556693     3.549050
      3.541407     3.533763     3.526120     3.518477     3.510834     3.503191     3.495547     3.487904     3.480261     3.472618
      3.464974     3.457331     3.449688     3.442045     3.434402     3.426758     3.419115     3.411472     3.403829     3.396185
      3.388542     3.380899     3.373256     3.365613     3.357969     3.350326     3.342683     3.335040     3.327396     3.319753
      3.312110     3.304467     3.296824     3.289180     3.281537     3.273894     3.266251     3.258607     3.250964     3.243321
      3.235678     3.228034     3.220391     3.212748     3.205105     3.197462     3.189818     3.182175     3.174532     3.166889
      3.159245     3.151602     3.143959     3.136316     3.128673     3.121029     3.113386     3.105743     3.098100     3.090456
      3.082813     3.075170     3.067527     3.059884     3.052240     3.044597     3.036954     3.029311     3.021667     3.014024
      3.006381     2.998738     2.991095     2.983451     2.975808     2.968165     2.960522     2.952878     2.945235     2.937592
      2.929949     2.922306     2.914662     2.907019     2.899376     2.891733     2.884089     2.876446     2.868803     2.861160
      2.853517     2.845873     2.838230     2.830587     2.822944     2.815300     2.807657     2.800014     2.792371     2.784728
      2.777084     2.769441     2.761798     2.754155     2.746511     2.738868     2.731225     2.723582     2.715939     2.708295
      2.700652     2.693009     2.685366     2.677722     2.670079     2.662436     2.654793     2.647150     2.639506     2.631863
      2.624220     2.616577     2.608933     2.601290     2.593647     2.586004     2.578361     2.570717     2.563074     2.555431
      2.547788     2.540144     2.532501     2.524858     2.517215     2.509572     2.501928     2.494285     2.486642     2.478999
      2.471355     2.463712     2.456069     2.448426     2.440783     2.433139     2.425496     2.417853     2.410210     2.402566
      2.394923     2.387280     2.379637     2.371994     2.364350     2.356707     2.349064     2.341421     2.333777     2.326134
      2.318491     2.310848     2.303205     2.295561     2.287918     2.280275     2.272632     2.264988     2.257345     2.249702
      2.242059     2.234416     2.226772     2.219129     2.211486     2.203843     2.196199     2.188556     2.180913     2.173270
      2.165627     2.157983     2.150340     2.142697     2.135054     2.127410     2.119767     2.112124     2.104481     2.096838
      2.089194     2.081551     2.073908     2.066265     2.058621     2.050978     2.043335     2.035692     2.028049     2.020405
      2.012762     2.005119     1.997476     1.989833     1.982190     1.974546     1.966903     1.959260     1.951617     1.943974
      1.936331     1.928688     1.921045     1.913402     1.905759     1.898115     1.890472     1.882829     1.875186     1.867543
      1.859900     1.852257     1.844614     1.836971     1.829327     1.821684     1.814041     1.806398     1.798755     1.791112
      1.783469     1.775826     1.768183     1.760540     1.752896     1.745253     1.737610     1.729967     1.722324     1.714681
      1.707038     1.699395     1.691752     1.684108     1.676465     1.668822     1.661179     1.653536     1.645893     1.638250
      1.630607     1.622964     1.615321     1.607677     1.600034     1.592391     1.584748     1.577105     1.569462     1.561819
      1.554176     1.546533     1.538890     1.531246     1.523603     1.515960     1.508317     1.500674     1.493031     1.485388
      1.477745     1.470102     1.462458     1.454815     1.447172     1.439529     1.431886     1.424243     1.416600     1.408957
      1.401314     1.393671     1.386027     1.378384     1.370741     1.363098     1.355455     1.347812     1.340169     1.332526
      1.324883     1.317240     1.309596     1.301953     1.294310     1.286667     1.279024     1.271381     1.263738     1.256095
      1.248452     1.240808     1.233165     1.225522     1.217879     1.210236     1.202593     1.194950     1.187307     1.179664
      1.172021     1.164377     1.156734     1.149091     1.141448     1.133805     1.126162     1.118519     1.110876     1.103233
      1.095590     1.087946     1.080303     1.072660     1.065017     1.057374     1.049731     1.042088     1.034445     1.026802
      1.019158     1.011515     1.003872     0.996229     0.988586     0.980943     0.973300     0.965657     0.958014     0.950371
      0.942727     0.935084     0.927441     0.919798     0.912155     0.904512     0.896869     0.889226     0.881583     0.873940
      0.866296     0.858653     0.851010     0.843367     0.835724     0.828081     0.820438     0.812795     0.805152     0.797508
      0.789865     0.782222     0.774579     0.766936     0.759293     0.751650     0.744007     0.736364     0.728721     0.721077
      0.713434     0.705791     0.698148     0.690505     0.682862     0.675219     0.667576     0.659933     0.652290     0.644646
      0.637003     0.629360     0.621717     0.614074     0.606431     0.598788     0.591145     0.583502     0.575858     0.568215
      0.560572     0.552929     0.545286     0.537643     0.530000     0.522357     0.514714     0.507071     0.499427     0.491784
      0.484141     0.476498     0.468855     0.461212     0.453569     0.445925     0.438282     0.430639     0.422996     0.415353
      0.407710     0.400067     0.392424     0.384780     0.377137     0.369494     0.361851     0.354208     0.346565     0.338922
      0.331278     0.323635     0.315992     0.308349     0.300706     0.293063     0.285420     0.277777     0.270133     0.262490
      0.254847     0.247204     0.239561     0.231918     0.224275     0.216631     0.208988     0.201345
 NY phased data points follow
   8.31645E+00  9.25499E+00  8.01531E+00  7.45666E+00  1.02042E+01  1.08488E+01  1.19553E+01  1.09170E+01  8.09971E+00  1.40624E+01
   1.37159E+01  1.19949E+01  1.36655E+01  1.40929E+01  1.51330E+01  1.71845E+01  1.56218E+01  1.63414E+01  2.00841E+01  1.48472E+01
   1.91872E+01  1.97930E+01  1.84154E+01  1.37058E+01  2.05625E+01  1.92874E+01  2.14107E+01  1.94998E+01  1.84648E+01  1.84489E+01
   1.96375E+01  2.09363E+01  1.94785E+01  1.69724E+01  2.20815E+01  1.88681E+01  2.11806E+01  2.26427E+01  2.14071E+01  2.26531E+01
   2.22739E+01  2.26444E+01  2.05372E+01  2.43001E+01  2.20849E+01  2.22870E+01  2.12768E+01  2.16076E+01  2.17807E+01  2.07055E+01
   1.98909E+01  2.08850E+01  1.88031E+01  2.50032E+01  1.80966E+01  1.99372E+01  2.11726E+01  2.08499E+01  2.04369E+01  1.77231E+01
   1.83122E+01  1.86611E+01  1.91345E+01  2.15951E+01  1.76068E+01  1.51779E+01  1.57566E+01  1.72650E+01  1.68905E+01  1.54245E+01
   1.46241E+01  1.68071E+01  1.51738E+01  1.40730E+01  1.05276E+01  1.24191E+01  7.75156E+00  1.13557E+01  9.32418E+00  9.68477E+00
   8.98145E+00  7.99284E+00  7.43733E+00  6.14646E+00  7.95984E+00  6.88225E+00  5.37859E+00  5.40746E+00  1.59894E+00  3.64705E+00
   2.82638E+00  2.65599E+00  1.51067E-01  2.36680E-01 -1.91810E-01 -2.62093E-01 -1.68309E+00 -4.63964E+00 -6.35921E+00 -3.25662E+00
  -6.93198E+00 -5.49396E+00 -7.43516E+00 -9.15944E+00 -8.40503E+00 -1.05672E+01 -1.52440E+01 -1.38872E+01 -1.08503E+01 -1.27499E+01
  -1.46339E+01 -1.28076E+01 -1.89261E+01 -1.79620E+01 -1.78821E+01 -1.79144E+01 -1.46884E+01 -2.01062E+01 -1.92148E+01 -2.26406E+01
  -2.07995E+01 -2.30175E+01 -2.02185E+01 -2.61872E+01 -2.49313E+01 -2.82294E+01 -2.88200E+01 -2.80846E+01 -2.68958E+01 -2.63972E+01
  -2.89223E+01 -3.13967E+01 -3.04922E+01 -2.79801E+01 -3.18541E+01 -3.11602E+01 -3.51770E+01 -3.32550E+01 -3.53096E+01 -3.31093E+01
  -3.62609E+01 -3.47079E+01 -3.55113E+01 -3.47054E+01 -3.66197E+01 -3.59561E+01 -3.41698E+01 -3.75820E+01 -3.92522E+01 -3.69316E+01
  -3.99154E+01 -3.52417E+01 -3.62981E+01 -3.66439E+01 -3.82874E+01 -3.50528E+01 -3.68386E+01 -3.54840E+01 -3.79148E+01 -3.90130E+01
  -3.76786E+01 -3.77078E+01 -3.65272E+01 -3.69029E+01 -3.58103E+01 -3.98081E+01 -3.43298E+01 -3.23020E+01 -3.79673E+01 -3.55636E+01
  -3.48048E+01 -3.51930E+01 -3.43472E+01 -3.30799E+01 -3.38811E+01 -3.70899E+01 -3.22477E+01 -3.18257E+01 -2.76237E+01 -2.89650E+01
  -3.12900E+01 -2.75087E+01 -2.75350E+01 -2.56759E+01 -2.77434E+01 -2.32012E+01 -2.57880E+01 -2.30328E+01 -2.03693E+01 -2.18983E+01
  -1.97031E+01 -1.99073E+01 -1.58018E+01 -1.28138E+01 -1.44989E+01 -1.18320E+01 -1.10599E+01 -8.80235E+00 -8.20757E+00 -4.31727E+00
  -3.77119E+00 -4.80530E+00  3.07051E+00  3.10787E-01  4.41818E+00  4.22219E+00  8.01639E+00  1.20493E+01  1.64683E+01  1.46800E+01
   1.87966E+01  1.96747E+01  2.61234E+01  2.31995E+01  2.52019E+01  2.81456E+01  3.28307E+01  3.61978E+01  3.80842E+01  4.18918E+01
   5.05510E+01  5.16706E+01  5.16502E+01  5.44873E+01  6.09192E+01  6.22314E+01  6.91375E+01  6.93216E+01  7.40911E+01  8.04393E+01
   8.60096E+01  8.65105E+01  8.57011E+01  9.41688E+01  9.64623E+01  1.02254E+02  1.06225E+02  1.08532E+02  1.11610E+02  1.15746E+02
   1.23722E+02  1.25446E+02  1.31225E+02  1.33407E+02  1.40119E+02  1.43837E+02  1.48413E+02  1.54467E+02  1.53393E+02  1.56194E+02
   1.58193E+02  1.62229E+02  1.60256E+02  1.59373E+02  1.57485E+02  1.56782E+02  1.52153E+02  1.43226E+02  1.39804E+02  1.35528E+02
   1.29975E+02  1.17841E+02  1.13085E+02  1.02139E+02  9.56606E+01  8.44517E+01  7.24172E+01  6.55708E+01  5.54722E+01  4.26437E+01
   3.24694E+01  2.30486E+01  9.59023E+00 -4.31769E+00 -1.29778E+01 -2.62358E+01 -3.77325E+01 -5.00334E+01 -6.02358E+01 -7.03574E+01
  -8.33706E+01 -9.35920E+01 -9.96377E+01 -1.09251E+02 -1.17168E+02 -1.25276E+02 -1.29546E+02 -1.35863E+02 -1.41466E+02 -1.46706E+02
  -1.47449E+02 -1.52264E+02 -1.56183E+02 -1.54942E+02 -1.58079E+02 -1.62147E+02 -1.62914E+02 -1.65079E+02 -1.67192E+02 -1.56311E+02
  -1.58882E+02 -1.64413E+02 -1.60843E+02 -1.59242E+02 -1.55977E+02 -1.53874E+02 -1.46698E+02 -1.49632E+02 -1.47761E+02 -1.48269E+02
  -1.45775E+02 -1.40748E+02 -1.40659E+02 -1.36918E+02 -1.35723E+02 -1.25474E+02 -1.25654E+02 -1.23323E+02 -1.17083E+02 -1.10449E+02
  -1.07960E+02 -1.05338E+02 -1.01649E+02 -9.98514E+01 -8.94994E+01 -8.92596E+01 -8.16425E+01 -7.66252E+01 -7.06697E+01 -6.79321E+01
  -6.20277E+01 -5.54094E+01 -5.08449E+01 -4.39786E+01 -3.66600E+01 -3.43651E+01 -2.92571E+01 -2.12935E+01 -1.61206E+01 -1.07847E+01
  -6.32490E+00 -1.53506E+00  5.19544E-01  1.00016E+01  1.41646E+01  2.09542E+01  2.47221E+01  3.07063E+01  3.60916E+01  3.68529E+01
   4.08822E+01  4.43095E+01  4.83751E+01  5.81936E+01  5.63952E+01  5.81021E+01  6.38777E+01  6.74922E+01  6.85476E+01  7.14264E+01
   7.63037E+01  7.70161E+01  7.74060E+01  8.14492E+01  8.19195E+01  8.32523E+01  8.44009E+01  8.89305E+01  8.76466E+01  8.92694E+01
   8.53000E+01  8.85584E+01  9.04470E+01  8.83523E+01  9.13208E+01  9.18251E+01  9.35630E+01  8.78931E+01  8.68928E+01  8.87294E+01
   8.85707E+01  8.72283E+01  8.71771E+01  8.54132E+01  8.66353E+01  8.59856E+01  8.50880E+01  8.14373E+01  7.84670E+01  7.88444E+01
   7.93564E+01  7.65819E+01  7.38946E+01  6.93052E+01  6.86411E+01  6.70841E+01  6.61666E+01  6.61970E+01  5.89261E+01  5.88003E+01
   5.61337E+01  5.31536E+01  5.32707E+01  4.90113E+01  4.53150E+01  4.26429E+01  4.50254E+01  4.23172E+01  3.99014E+01  3.57623E+01
   3.25130E+01  3.27189E+01  3.11546E+01  2.58139E+01  2.59715E+01  1.85386E+01  1.95216E+01  1.68096E+01  1.49027E+01  1.55444E+01
   1.23298E+01  9.06497E+00  6.72935E+00  3.22934E+00  1.84338E+00  9.37412E-01  5.46333E-01 -3.44530E+00 -3.87603E+00 -6.08905E+00
  -8.22503E+00 -1.09648E+01 -9.84177E+00 -1.53939E+01 -1.59613E+01 -1.62565E+01 -1.67013E+01 -1.56329E+01 -2.30549E+01 -2.31532E+01
  -2.43786E+01 -2.39806E+01 -2.79689E+01 -2.94563E+01 -3.09443E+01 -2.68289E+01 -3.01885E+01 -3.07440E+01 -3.26795E+01 -3.35909E+01
  -3.70045E+01 -3.43180E+01 -3.55976E+01 -3.54544E+01 -3.56093E+01 -3.79763E+01 -3.74765E+01 -4.12471E+01 -3.95789E+01 -3.97473E+01
  -3.93525E+01 -3.75340E+01 -4.21969E+01 -4.32965E+01 -3.65785E+01 -3.63394E+01 -4.33302E+01 -4.24665E+01 -4.23766E+01 -4.07205E+01
  -3.79261E+01 -3.88014E+01 -3.80941E+01 -3.82644E+01 -4.00280E+01 -3.64641E+01 -3.71381E+01 -4.17162E+01 -3.76451E+01 -3.68880E+01
  -3.71066E+01 -3.38431E+01 -3.73262E+01 -3.75812E+01 -3.45359E+01 -3.23465E+01 -3.51942E+01 -3.21023E+01 -3.22212E+01 -3.02366E+01
  -3.19878E+01 -3.05469E+01 -2.95771E+01 -2.94938E+01 -2.91681E+01 -2.84914E+01 -2.75557E+01 -2.66450E+01
 NY points of the fit to the data follow
   1.01195E+01  1.09818E+01  1.22927E+01  1.29181E+01  1.39267E+01  1.40304E+01  1.47161E+01  1.44900E+01  1.47066E+01  1.38347E+01
   1.41208E+01  1.52586E+01  1.55334E+01  1.66926E+01  1.67673E+01  1.71160E+01  1.65704E+01  1.58180E+01  1.51170E+01  1.38716E+01
   1.25009E+01  1.26371E+01  1.24290E+01  1.23761E+01  1.32214E+01  1.39695E+01  1.54725E+01  1.63349E+01  1.71842E+01  1.71862E+01
   1.73336E+01  1.68631E+01  1.67915E+01  1.62751E+01  1.62096E+01  1.67159E+01  1.93689E+01  2.20411E+01  2.46889E+01  2.61635E+01
   2.73263E+01  2.75090E+01  2.79058E+01  2.76777E+01  2.76817E+01  2.68608E+01  2.63701E+01  2.47406E+01  2.44570E+01  2.21217E+01
   2.23777E+01  2.26661E+01  2.21612E+01  2.23769E+01  2.14066E+01  2.17647E+01  2.05815E+01  2.10840E+01  2.02105E+01  2.01835E+01
   1.92681E+01  1.93309E+01  1.79980E+01  1.77897E+01  1.62623E+01  1.62447E+01  1.57619E+01  1.73915E+01  1.65598E+01  1.74908E+01
   1.55842E+01  1.53532E+01  1.18683E+01  1.03959E+01  5.99166E+00  4.84943E+00  2.64014E+00  3.34560E+00  9.22283E-01  8.69166E-01
  -1.69270E+00 -6.38811E-01 -1.42798E-01  1.51951E+00  1.76062E+00  3.00653E+00  1.91023E+00  2.45656E+00  1.97129E+00  2.89356E+00
   3.11720E+00  4.04248E+00  3.59973E+00  3.58648E+00  2.13055E+00  1.33536E+00 -8.19102E-01 -1.56061E+00 -3.58119E+00 -4.70141E+00
  -6.31761E+00 -7.27093E+00 -8.88866E+00 -1.01830E+01 -1.15942E+01 -1.30037E+01 -1.38611E+01 -1.38494E+01 -1.43625E+01 -1.43424E+01
  -1.48488E+01 -1.46394E+01 -1.45858E+01 -1.38594E+01 -1.29509E+01 -1.26289E+01 -1.36844E+01 -1.55174E+01 -1.91562E+01 -2.25191E+01
  -2.69464E+01 -2.85334E+01 -2.87419E+01 -2.83154E+01 -2.81104E+01 -2.68528E+01 -2.70948E+01 -2.56488E+01 -2.66008E+01 -2.51665E+01
  -2.64638E+01 -2.51924E+01 -2.68827E+01 -2.57277E+01 -2.75184E+01 -2.63406E+01 -2.83602E+01 -2.71726E+01 -2.91897E+01 -2.79333E+01
  -2.98153E+01 -2.86021E+01 -3.04448E+01 -2.92274E+01 -3.10523E+01 -3.01112E+01 -3.18565E+01 -3.10309E+01 -3.24108E+01 -3.15413E+01
  -3.28065E+01 -3.22659E+01 -3.33291E+01 -3.27033E+01 -3.29316E+01 -3.19170E+01 -3.22743E+01 -3.19710E+01 -3.26451E+01 -3.32293E+01
  -3.40235E+01 -3.48194E+01 -3.51720E+01 -3.58928E+01 -3.63165E+01 -3.71521E+01 -3.74411E+01 -3.81326E+01 -3.82520E+01 -3.89303E+01
  -3.88538E+01 -3.94041E+01 -3.87149E+01 -3.87686E+01 -3.76912E+01 -3.76645E+01 -3.67221E+01 -3.67266E+01 -3.59847E+01 -3.60410E+01
  -3.47127E+01 -3.41813E+01 -3.24262E+01 -3.14841E+01 -2.96532E+01 -2.89066E+01 -2.70501E+01 -2.59185E+01 -2.34994E+01 -2.20784E+01
  -1.96296E+01 -1.89396E+01 -1.67747E+01 -1.59066E+01 -1.33865E+01 -1.20952E+01 -9.24086E+00 -7.51389E+00 -4.63051E+00 -3.09106E+00
  -5.81472E-01  6.98104E-01  3.03339E+00  3.76395E+00  5.41332E+00  6.18272E+00  8.23612E+00  9.30165E+00  1.16992E+01  1.27946E+01
   1.52529E+01  1.64757E+01  1.92993E+01  2.07845E+01  2.42361E+01  2.61320E+01  3.00658E+01  3.23975E+01  3.63969E+01  3.90381E+01
   4.33523E+01  4.65196E+01  5.08497E+01  5.43987E+01  5.83183E+01  6.22911E+01  6.64293E+01  7.17157E+01  7.59860E+01  8.18577E+01
   8.55770E+01  9.04472E+01  9.29451E+01  9.70794E+01  9.88015E+01  1.02450E+02  1.03844E+02  1.09245E+02  1.13356E+02  1.17330E+02
   1.21371E+02  1.23048E+02  1.26546E+02  1.27584E+02  1.36606E+02  1.40286E+02  1.48901E+02  1.51344E+02  1.57646E+02  1.58233E+02
   1.62395E+02  1.61387E+02  1.62817E+02  1.59668E+02  1.58803E+02  1.54262E+02  1.51530E+02  1.45840E+02  1.41688E+02  1.35022E+02
   1.28859E+02  1.20665E+02  1.12979E+02  1.03796E+02  9.44776E+01  8.45292E+01  7.44248E+01  6.45788E+01  5.37751E+01  4.40155E+01
   3.24184E+01  2.21656E+01  8.98935E+00 -2.00345E+00 -1.65683E+01 -2.73197E+01 -4.28431E+01 -5.08159E+01 -6.37588E+01 -7.25709E+01
  -8.71292E+01 -9.78728E+01 -1.12466E+02 -1.21758E+02 -1.26654E+02 -1.30531E+02 -1.33613E+02 -1.36498E+02 -1.38851E+02 -1.41200E+02
  -1.43133E+02 -1.45137E+02 -1.46789E+02 -1.48479E+02 -1.49764E+02 -1.51034E+02 -1.51901E+02 -1.52745E+02 -1.53260E+02 -1.53783E+02
  -1.53969E+02 -1.54171E+02 -1.54041E+02 -1.53902E+02 -1.53415E+02 -1.52837E+02 -1.51942E+02 -1.50909E+02 -1.49543E+02 -1.48023E+02
  -1.46176E+02 -1.44131E+02 -1.41786E+02 -1.39174E+02 -1.36219E+02 -1.32983E+02 -1.29410E+02 -1.25546E+02 -1.21375E+02 -1.16921E+02
  -1.12231E+02 -1.07305E+02 -1.02183E+02 -9.68896E+01 -9.14666E+01 -8.59514E+01 -8.03878E+01 -7.48138E+01 -6.92687E+01 -6.37829E+01
  -5.83839E+01 -5.30873E+01 -4.79027E+01 -4.28263E+01 -3.78469E+01 -3.29426E+01 -2.80853E+01 -2.32402E+01 -1.83716E+01 -1.34444E+01
  -8.43051E+00 -3.31028E+00  1.92128E+00  7.25472E+00  1.26625E+01  1.81018E+01  2.35154E+01  2.88372E+01  3.39966E+01  3.89268E+01
   4.35689E+01  4.78801E+01  5.18344E+01  5.54279E+01  5.86746E+01  6.16068E+01  6.42675E+01  6.67080E+01  6.89788E+01  7.11276E+01
   7.31926E+01  7.52019E+01  7.71702E+01  7.91015E+01  8.09875E+01  8.28131E+01  8.45556E+01  8.61900E+01  8.76892E+01  8.90281E+01
   9.01828E+01  9.11347E+01  9.18681E+01  9.23737E+01  9.26460E+01  9.26851E+01  9.24947E+01  9.20836E+01  9.14629E+01  9.06476E+01
   8.96539E+01  8.85007E+01  8.72064E+01  8.57915E+01  8.42746E+01  8.26750E+01  8.10098E+01  7.92957E+01  7.75463E+01  7.57747E+01
   7.39904E+01  7.22021E+01  7.04148E+01  6.86329E+01  6.68571E+01  6.50879E+01  6.33224E+01  6.15579E+01  5.97890E+01  5.80110E+01
   5.62177E+01  5.44036E+01  5.25621E+01  5.06881E+01  4.87755E+01  4.68205E+01  4.48184E+01  4.27673E+01  4.06648E+01  3.85110E+01
   3.63058E+01  3.40518E+01  3.17514E+01  2.94093E+01  2.70297E+01  2.46192E+01  2.21838E+01  1.97312E+01  1.72683E+01  1.48036E+01
   1.23444E+01  9.89914E+00  7.47504E+00  5.08022E+00  2.72117E+00  4.05153E-01 -1.86229E+00 -4.07494E+00 -6.22840E+00 -8.31768E+00
  -1.03396E+01 -1.22906E+01 -1.41686E+01 -1.59710E+01 -1.76972E+01 -1.93455E+01 -2.09162E+01 -2.24086E+01 -2.38238E+01 -2.51619E+01
  -2.64245E+01 -2.76122E+01 -2.87272E+01 -2.97705E+01 -3.07447E+01 -3.16509E+01 -3.24919E+01 -3.32690E+01 -3.39852E+01 -3.46418E+01
  -3.52418E+01 -3.57866E+01 -3.62789E+01 -3.67203E+01 -3.71135E+01 -3.74598E+01 -3.77618E+01 -3.80209E+01 -3.82395E+01 -3.84187E+01
  -3.85611E+01 -3.86675E+01 -3.87402E+01 -3.87802E+01 -3.87895E+01 -3.87690E+01 -3.87207E+01 -3.86452E+01 -3.85443E+01 -3.84188E+01
  -3.82703E+01 -3.80994E+01 -3.79077E+01 -3.76955E+01 -3.74645E+01 -3.72150E+01 -3.69484E+01 -3.66649E+01 -3.63660E+01 -3.60518E+01
  -3.57236E+01 -3.53815E+01 -3.50268E+01 -3.46594E+01 -3.42807E+01 -3.38905E+01 -3.34900E+01 -3.30790E+01 -3.26588E+01 -3.22290E+01
  -3.17908E+01 -3.13439E+01 -3.08893E+01 -3.04266E+01 -2.99570E+01 -2.94797E+01 -2.89957E+01 -2.85043E+01
 NY background values follow
    -4.772E+01   -4.621E+01   -4.476E+01   -4.339E+01   -4.210E+01   -4.087E+01   -3.971E+01   -3.862E+01   -3.760E+01   -3.665E+01
    -3.575E+01   -3.493E+01   -3.416E+01   -3.346E+01   -3.282E+01   -3.224E+01   -3.172E+01   -3.125E+01   -3.084E+01   -3.048E+01
    -3.018E+01   -2.993E+01   -2.974E+01   -2.959E+01   -2.949E+01   -2.944E+01   -2.944E+01   -2.949E+01   -2.957E+01   -2.971E+01
    -2.988E+01   -3.010E+01   -3.035E+01   -3.065E+01   -3.098E+01   -3.135E+01   -3.176E+01   -3.220E+01   -3.267E+01   -3.318E+01
    -3.372E+01   -3.428E+01   -3.488E+01   -3.551E+01   -3.616E+01   -3.683E+01   -3.754E+01   -3.826E+01   -3.901E+01   -3.977E+01
    -4.056E+01   -4.137E+01   -4.219E+01   -4.303E+01   -4.389E+01   -4.476E+01   -4.564E+01   -4.654E+01   -4.745E+01   -4.836E+01
    -4.929E+01   -5.022E+01   -5.116E+01   -5.210E+01   -5.305E+01   -5.400E+01   -5.496E+01   -5.591E+01   -5.686E+01   -5.781E+01
    -5.876E+01   -5.971E+01   -6.065E+01   -6.158E+01   -6.251E+01   -6.343E+01   -6.434E+01   -6.524E+01   -6.613E+01   -6.700E+01
    -6.786E+01   -6.871E+01   -6.953E+01   -7.035E+01   -7.114E+01   -7.191E+01   -7.267E+01   -7.340E+01   -7.410E+01   -7.479E+01
    -7.545E+01   -7.608E+01   -7.668E+01   -7.726E+01   -7.781E+01   -7.832E+01   -7.880E+01   -7.925E+01   -7.967E+01   -8.005E+01
    -8.039E+01   -8.070E+01   -8.097E+01   -8.121E+01   -8.141E+01   -8.158E+01   -8.172E+01   -8.183E+01   -8.190E+01   -8.195E+01
    -8.196E+01   -8.195E+01   -8.191E+01   -8.185E+01   -8.176E+01   -8.164E+01   -8.150E+01   -8.134E+01   -8.115E+01   -8.094E+01
    -8.071E+01   -8.047E+01   -8.020E+01   -7.992E+01   -7.961E+01   -7.929E+01   -7.896E+01   -7.861E+01   -7.825E+01   -7.787E+01
    -7.748E+01   -7.708E+01   -7.667E+01   -7.625E+01   -7.582E+01   -7.538E+01   -7.494E+01   -7.448E+01   -7.403E+01   -7.356E+01
    -7.310E+01   -7.263E+01   -7.216E+01   -7.168E+01   -7.121E+01   -7.074E+01   -7.026E+01   -6.979E+01   -6.932E+01   -6.886E+01
    -6.840E+01   -6.794E+01   -6.749E+01   -6.705E+01   -6.662E+01   -6.619E+01   -6.577E+01   -6.537E+01   -6.497E+01   -6.459E+01
    -6.421E+01   -6.386E+01   -6.351E+01   -6.318E+01   -6.287E+01   -6.258E+01   -6.230E+01   -6.204E+01   -6.180E+01   -6.158E+01
    -6.138E+01   -6.120E+01   -6.105E+01   -6.092E+01   -6.081E+01   -6.073E+01   -6.067E+01   -6.065E+01   -6.065E+01   -6.067E+01
    -6.073E+01   -6.082E+01   -6.093E+01   -6.108E+01   -6.127E+01   -6.148E+01   -6.173E+01   -6.202E+01   -6.234E+01   -6.270E+01
    -6.310E+01   -6.353E+01   -6.400E+01   -6.452E+01   -6.507E+01   -6.567E+01   -6.631E+01   -6.699E+01   -6.772E+01   -6.849E+01
    -6.931E+01   -7.018E+01   -7.108E+01   -7.203E+01   -7.302E+01   -7.406E+01   -7.513E+01   -7.624E+01   -7.739E+01   -7.858E+01
    -7.980E+01   -8.106E+01   -8.236E+01   -8.368E+01   -8.505E+01   -8.644E+01   -8.786E+01   -8.931E+01   -9.080E+01   -9.231E+01
    -9.384E+01   -9.541E+01   -9.700E+01   -9.861E+01   -1.002E+02   -1.019E+02   -1.036E+02   -1.053E+02   -1.070E+02   -1.088E+02
    -1.105E+02   -1.123E+02   -1.141E+02   -1.159E+02   -1.177E+02   -1.195E+02   -1.214E+02   -1.233E+02   -1.251E+02   -1.270E+02
    -1.289E+02   -1.308E+02   -1.327E+02   -1.346E+02   -1.365E+02   -1.384E+02   -1.403E+02   -1.423E+02   -1.442E+02   -1.461E+02
    -1.480E+02   -1.500E+02   -1.519E+02   -1.538E+02   -1.557E+02   -1.576E+02   -1.595E+02   -1.614E+02   -1.633E+02   -1.652E+02
    -1.671E+02   -1.689E+02   -1.708E+02   -1.726E+02   -1.744E+02   -1.762E+02   -1.780E+02   -1.798E+02   -1.816E+02   -1.833E+02
    -1.850E+02   -1.867E+02   -1.884E+02   -1.901E+02   -1.917E+02   -1.933E+02   -1.949E+02   -1.965E+02   -1.980E+02   -1.995E+02
    -2.010E+02   -2.024E+02   -2.039E+02   -2.053E+02   -2.066E+02   -2.079E+02   -2.092E+02   -2.105E+02   -2.117E+02   -2.129E+02
    -2.140E+02   -2.152E+02   -2.162E+02   -2.173E+02   -2.182E+02   -2.192E+02   -2.201E+02   -2.210E+02   -2.218E+02   -2.225E+02
    -2.233E+02   -2.240E+02   -2.246E+02   -2.252E+02   -2.257E+02   -2.262E+02   -2.267E+02   -2.271E+02   -2.275E+02   -2.278E+02
    -2.281E+02   -2.284E+02   -2.286E+02   -2.288E+02   -2.289E+02   -2.290E+02   -2.291E+02   -2.291E+02   -2.291E+02   -2.291E+02
    -2.290E+02   -2.289E+02   -2.287E+02   -2.286E+02   -2.284E+02   -2.281E+02   -2.278E+02   -2.275E+02   -2.272E+02   -2.268E+02
    -2.264E+02   -2.260E+02   -2.255E+02   -2.250E+02   -2.245E+02   -2.239E+02   -2.234E+02   -2.228E+02   -2.221E+02   -2.215E+02
    -2.208E+02   -2.201E+02   -2.194E+02   -2.186E+02   -2.178E+02   -2.171E+02   -2.162E+02   -2.154E+02   -2.145E+02   -2.136E+02
    -2.127E+02   -2.118E+02   -2.109E+02   -2.099E+02   -2.089E+02   -2.079E+02   -2.069E+02   -2.059E+02   -2.049E+02   -2.038E+02
    -2.027E+02   -2.016E+02   -2.005E+02   -1.994E+02   -1.983E+02   -1.971E+02   -1.960E+02   -1.948E+02   -1.936E+02   -1.924E+02
    -1.912E+02   -1.900E+02   -1.888E+02   -1.876E+02   -1.863E+02   -1.851E+02   -1.838E+02   -1.826E+02   -1.813E+02   -1.801E+02
    -1.788E+02   -1.775E+02   -1.762E+02   -1.749E+02   -1.737E+02   -1.724E+02   -1.711E+02   -1.698E+02   -1.685E+02   -1.672E+02
    -1.659E+02   -1.646E+02   -1.633E+02   -1.620E+02   -1.607E+02   -1.594E+02   -1.582E+02   -1.569E+02   -1.556E+02   -1.543E+02
    -1.531E+02   -1.518E+02   -1.505E+02   -1.493E+02   -1.480E+02   -1.468E+02   -1.456E+02   -1.443E+02   -1.431E+02   -1.419E+02
    -1.406E+02   -1.394E+02   -1.382E+02   -1.370E+02   -1.358E+02   -1.346E+02   -1.334E+02   -1.322E+02   -1.310E+02   -1.298E+02
    -1.286E+02   -1.275E+02   -1.263E+02   -1.251E+02   -1.240E+02   -1.228E+02   -1.217E+02   -1.205E+02   -1.194E+02   -1.182E+02
    -1.171E+02   -1.160E+02   -1.148E+02   -1.137E+02   -1.126E+02   -1.115E+02   -1.104E+02   -1.093E+02   -1.082E+02   -1.071E+02
    -1.060E+02   -1.049E+02   -1.038E+02   -1.027E+02   -1.016E+02   -1.006E+02   -9.950E+01   -9.843E+01   -9.738E+01   -9.632E+01
    -9.527E+01   -9.422E+01   -9.318E+01   -9.214E+01   -9.111E+01   -9.008E+01   -8.905E+01   -8.803E+01   -8.702E+01   -8.600E+01
    -8.499E+01   -8.399E+01   -8.299E+01   -8.199E+01   -8.100E+01   -8.001E+01   -7.903E+01   -7.805E+01   -7.708E+01   -7.610E+01
    -7.514E+01   -7.417E+01   -7.322E+01   -7.226E+01   -7.131E+01   -7.036E+01   -6.942E+01   -6.848E+01   -6.755E+01   -6.662E+01
    -6.569E+01   -6.477E+01   -6.385E+01   -6.294E+01   -6.203E+01   -6.112E+01   -6.022E+01   -5.933E+01   -5.843E+01   -5.754E+01
    -5.666E+01   -5.578E+01   -5.490E+01   -5.403E+01   -5.316E+01   -5.229E+01   -5.143E+01   -5.058E+01
 Asp      Conc. = 1.88E+03
