 LCModel (Version 6.3-1L) Copyright: S.W. Provencher.          Ref.: Magn. Reson. Med. 30:672-679 (1993).                
 Slice#2 Row#8 Col#6  K_02_press_1_raw_act
 36 lines in following concentration table = NCONC+1
    Conc.  %SD /Cr+PCr  Metabolite                                         
   68.148 176% 3.4E-02 Ala                                                 
    0.000 999%   0.000 Asp                                                 
  508.194  49%   0.257 Cr                                                  
 1.47E+03  18%   0.743 PCr                                                 
    0.000 999%   0.000 GABA                                                
   13.692 999% 6.9E-03 Glc                                                 
  641.565  39%   0.325 Gln                                                 
 1.92E+03  15%   0.971 Glu                                                 
  785.560   4%   0.397 GPC                                                 
    0.000 999%   0.000 PCh                                                 
  623.001  15%   0.315 GSH                                                 
 1.47E+03  21%   0.742 Ins                                                 
   70.810 184% 3.6E-02 Lac                                                 
 3.04E+03   5%   1.540 NAA                                                 
  775.287  16%   0.392 NAAG                                                
   53.616  67% 2.7E-02 Scyllo                                              
  147.726 190% 7.5E-02 Tau                                                 
  321.323  47%   0.163 -CrCH2                                              
  785.560   4%   0.397 GPC+PCh                                             
 3.82E+03   3%   1.933 NAA+NAAG                                            
 1.98E+03   4%   1.000 Cr+PCr                                              
 2.56E+03  15%   1.295 Glu+Gln                                             
 2.03E+03  40%   1.025 Lip13a                                              
    0.000 999%   0.000 Lip13b                                              
  548.693  67%   0.278 Lip09                                               
 2.12E+03  22%   1.070 MM09                                                
  347.558  69%   0.176 Lip20                                               
 3.75E+03  18%   1.897 MM20                                                
  757.075  47%   0.383 MM12                                                
   23.853 999% 1.2E-02 MM14                                                
  338.746 106%   0.171 MM17                                                
 2.03E+03  40%   1.025 Lip13a+Lip13b                                       
 2.81E+03  29%   1.420 MM14+Lip13a+Lip13b+MM12                             
 2.66E+03  14%   1.348 MM09+Lip09                                          
 4.10E+03  16%   2.073 MM20+Lip20                                          
   6 lines in following misc. output table
  FWHM = 0.038 ppm    S/N =  14                                            
  Data shift = 0.015 ppm                                                   
  Ph: -39 deg      -9.9 deg/ppm                                            
  alphaB,S = 1.5E+00,   4.7E+01                                            
   14 spline knots.   Ns = 6(1)                                            
  ( 5) 2 infls.   ( 3) 1 extrs.                                            
  498 points on ppm-axis = NY
      4.000000     3.992357     3.984714     3.977070     3.969427     3.961784     3.954141     3.946497     3.938854     3.931211
      3.923568     3.915925     3.908281     3.900638     3.892995     3.885352     3.877708     3.870065     3.862422     3.854779
      3.847136     3.839492     3.831849     3.824206     3.816563     3.808919     3.801276     3.793633     3.785990     3.778347
      3.770703     3.763060     3.755417     3.747774     3.740130     3.732487     3.724844     3.717201     3.709558     3.701914
      3.694271     3.686628     3.678985     3.671341     3.663698     3.656055     3.648412     3.640769     3.633125     3.625482
      3.617839     3.610196     3.602552     3.594909     3.587266     3.579623     3.571980     3.564336     3.556693     3.549050
      3.541407     3.533763     3.526120     3.518477     3.510834     3.503191     3.495547     3.487904     3.480261     3.472618
      3.464974     3.457331     3.449688     3.442045     3.434402     3.426758     3.419115     3.411472     3.403829     3.396185
      3.388542     3.380899     3.373256     3.365613     3.357969     3.350326     3.342683     3.335040     3.327396     3.319753
      3.312110     3.304467     3.296824     3.289180     3.281537     3.273894     3.266251     3.258607     3.250964     3.243321
      3.235678     3.228034     3.220391     3.212748     3.205105     3.197462     3.189818     3.182175     3.174532     3.166889
      3.159245     3.151602     3.143959     3.136316     3.128673     3.121029     3.113386     3.105743     3.098100     3.090456
      3.082813     3.075170     3.067527     3.059884     3.052240     3.044597     3.036954     3.029311     3.021667     3.014024
      3.006381     2.998738     2.991095     2.983451     2.975808     2.968165     2.960522     2.952878     2.945235     2.937592
      2.929949     2.922306     2.914662     2.907019     2.899376     2.891733     2.884089     2.876446     2.868803     2.861160
      2.853517     2.845873     2.838230     2.830587     2.822944     2.815300     2.807657     2.800014     2.792371     2.784728
      2.777084     2.769441     2.761798     2.754155     2.746511     2.738868     2.731225     2.723582     2.715939     2.708295
      2.700652     2.693009     2.685366     2.677722     2.670079     2.662436     2.654793     2.647150     2.639506     2.631863
      2.624220     2.616577     2.608933     2.601290     2.593647     2.586004     2.578361     2.570717     2.563074     2.555431
      2.547788     2.540144     2.532501     2.524858     2.517215     2.509572     2.501928     2.494285     2.486642     2.478999
      2.471355     2.463712     2.456069     2.448426     2.440783     2.433139     2.425496     2.417853     2.410210     2.402566
      2.394923     2.387280     2.379637     2.371994     2.364350     2.356707     2.349064     2.341421     2.333777     2.326134
      2.318491     2.310848     2.303205     2.295561     2.287918     2.280275     2.272632     2.264988     2.257345     2.249702
      2.242059     2.234416     2.226772     2.219129     2.211486     2.203843     2.196199     2.188556     2.180913     2.173270
      2.165627     2.157983     2.150340     2.142697     2.135054     2.127410     2.119767     2.112124     2.104481     2.096838
      2.089194     2.081551     2.073908     2.066265     2.058621     2.050978     2.043335     2.035692     2.028049     2.020405
      2.012762     2.005119     1.997476     1.989833     1.982190     1.974546     1.966903     1.959260     1.951617     1.943974
      1.936331     1.928688     1.921045     1.913402     1.905759     1.898115     1.890472     1.882829     1.875186     1.867543
      1.859900     1.852257     1.844614     1.836971     1.829327     1.821684     1.814041     1.806398     1.798755     1.791112
      1.783469     1.775826     1.768183     1.760540     1.752896     1.745253     1.737610     1.729967     1.722324     1.714681
      1.707038     1.699395     1.691752     1.684108     1.676465     1.668822     1.661179     1.653536     1.645893     1.638250
      1.630607     1.622964     1.615321     1.607677     1.600034     1.592391     1.584748     1.577105     1.569462     1.561819
      1.554176     1.546533     1.538890     1.531246     1.523603     1.515960     1.508317     1.500674     1.493031     1.485388
      1.477745     1.470102     1.462458     1.454815     1.447172     1.439529     1.431886     1.424243     1.416600     1.408957
      1.401314     1.393671     1.386027     1.378384     1.370741     1.363098     1.355455     1.347812     1.340169     1.332526
      1.324883     1.317240     1.309596     1.301953     1.294310     1.286667     1.279024     1.271381     1.263738     1.256095
      1.248452     1.240808     1.233165     1.225522     1.217879     1.210236     1.202593     1.194950     1.187307     1.179664
      1.172021     1.164377     1.156734     1.149091     1.141448     1.133805     1.126162     1.118519     1.110876     1.103233
      1.095590     1.087946     1.080303     1.072660     1.065017     1.057374     1.049731     1.042088     1.034445     1.026802
      1.019158     1.011515     1.003872     0.996229     0.988586     0.980943     0.973300     0.965657     0.958014     0.950371
      0.942727     0.935084     0.927441     0.919798     0.912155     0.904512     0.896869     0.889226     0.881583     0.873940
      0.866296     0.858653     0.851010     0.843367     0.835724     0.828081     0.820438     0.812795     0.805152     0.797508
      0.789865     0.782222     0.774579     0.766936     0.759293     0.751650     0.744007     0.736364     0.728721     0.721077
      0.713434     0.705791     0.698148     0.690505     0.682862     0.675219     0.667576     0.659933     0.652290     0.644646
      0.637003     0.629360     0.621717     0.614074     0.606431     0.598788     0.591145     0.583502     0.575858     0.568215
      0.560572     0.552929     0.545286     0.537643     0.530000     0.522357     0.514714     0.507071     0.499427     0.491784
      0.484141     0.476498     0.468855     0.461212     0.453569     0.445925     0.438282     0.430639     0.422996     0.415353
      0.407710     0.400067     0.392424     0.384780     0.377137     0.369494     0.361851     0.354208     0.346565     0.338922
      0.331278     0.323635     0.315992     0.308349     0.300706     0.293063     0.285420     0.277777     0.270133     0.262490
      0.254847     0.247204     0.239561     0.231918     0.224275     0.216631     0.208988     0.201345
 NY phased data points follow
  -6.51768E+01 -6.64656E+01 -6.29152E+01 -6.13829E+01 -5.51483E+01 -4.16756E+01 -3.60046E+01 -2.47493E+01 -1.53712E+01 -7.15555E+00
  -1.01660E+01 -1.40704E+01 -1.53309E+01 -2.19267E+01 -3.64579E+01 -3.67326E+01 -4.49920E+01 -5.54550E+01 -4.78793E+01 -4.86513E+01
  -5.08473E+01 -4.16930E+01 -4.79456E+01 -3.96699E+01 -3.68372E+01 -4.50792E+01 -4.10778E+01 -3.57021E+01 -2.73910E+01 -3.33963E+01
  -2.57734E+01 -2.16111E+01 -2.67660E+01 -2.94343E+01 -3.39453E+01 -3.42464E+01 -3.69756E+01 -2.77942E+01 -2.99717E+01 -2.22509E+01
  -3.18234E+01 -2.76787E+01 -2.74988E+01 -2.47019E+01 -2.29941E+01 -2.01632E+01 -1.66234E+01 -1.61342E+01 -1.04573E+01 -1.96819E+01
  -2.69612E+01 -2.23288E+01 -2.91711E+01 -2.45214E+01 -2.88561E+01 -2.55418E+01 -2.30431E+01 -2.31190E+01 -2.20350E+01 -2.64633E+01
  -2.77129E+01 -2.90603E+01 -3.03485E+01 -3.52397E+01 -3.89974E+01 -3.37676E+01 -2.93788E+01 -3.39417E+01 -2.96308E+01 -3.29370E+01
  -2.60305E+01 -2.87663E+01 -2.66943E+01 -1.96406E+01 -2.36543E+01 -2.88548E+01 -2.13354E+01 -2.62874E+01 -2.72862E+01 -2.33306E+01
  -1.95577E+01 -2.33862E+01 -1.66839E+01 -2.14953E+01 -3.13999E+01 -2.57319E+01 -2.46619E+01 -2.29607E+01 -1.28684E+01 -1.86259E+01
  -1.77007E+01 -1.40402E+01 -1.21222E+01 -1.04178E+01 -9.51634E+00 -1.06628E+01 -1.49753E+01 -9.10565E+00  3.73430E+00  1.19830E+01
   3.51523E+01  5.64336E+01  7.04596E+01  6.58308E+01  5.23859E+01  3.65529E+01  2.54763E+01  9.26893E+00  4.93045E+00 -1.83037E+00
  -3.59773E+00 -7.65867E+00 -3.54650E+00 -9.54995E+00 -8.70202E+00 -1.29316E+01 -9.11540E+00 -1.38503E+01 -2.00102E+00 -6.19809E+00
  -6.22693E+00 -5.62365E+00  3.06400E+00  1.51965E+01  2.75293E+01  5.38166E+01  7.20426E+01  6.90905E+01  5.79742E+01  4.73107E+01
   3.07437E+01  1.09603E+01  1.08895E+01  3.93841E+00  3.30473E+00 -2.73108E+00 -5.95208E+00 -1.36900E+01 -1.06436E+01 -4.32217E+00
  -3.50634E+00 -8.04639E+00 -5.56348E+00 -2.35064E+00 -1.16108E+01 -6.75210E+00 -1.42882E+00 -1.29910E+00 -1.20807E+01 -7.27248E+00
   1.98507E+00 -5.55772E+00 -1.37209E+00 -6.87237E+00 -8.76350E+00 -8.80690E+00 -8.85093E+00 -5.10178E+00 -6.52127E+00  3.83698E-01
  -2.18201E+00 -1.05185E+01 -8.10962E+00 -3.51502E+00 -4.90613E+00 -2.20379E+00  1.28121E+00 -7.63623E+00 -6.45774E+00 -1.19802E+01
  -1.99443E+01 -1.56349E+01 -1.89920E+01 -2.62216E+01 -2.88767E+01 -2.85952E+01 -2.56326E+01 -2.00714E+01 -2.18562E+01 -2.16401E+01
  -1.90748E+01 -1.54058E+01 -1.96278E+01 -1.60269E+01 -1.59706E+01 -1.20955E+01 -1.70563E+01 -1.08619E+01 -6.79110E+00 -4.90172E+00
   9.58681E-01  4.59479E+00  1.88502E+00  2.93644E+00  2.84751E+00 -1.70458E+00 -6.33021E+00 -7.77202E+00 -1.41112E+01 -1.00386E+01
  -4.62479E+00  4.92705E+00  3.66498E+00  5.43566E+00  7.09019E+00  1.00339E+00 -5.48058E+00 -1.81564E-01 -7.17429E+00 -8.89363E+00
  -1.19493E+01 -1.06979E+01  8.29402E-01  6.59731E+00  1.07544E+01  2.09630E+01  1.81125E+01  1.33792E+01 -2.42885E-02  4.15764E+00
  -4.57720E+00 -6.38517E+00 -7.46504E+00 -4.09384E+00  2.68854E+00  3.29059E+00  1.41201E+00  6.81515E+00  1.71589E+01  1.65827E+01
   9.46962E+00  1.63540E+01  1.33533E+01  5.81278E+00  1.09010E+01  1.63434E+01  1.41587E+01  9.56927E+00  3.87075E+00  5.74325E+00
   1.74062E+00 -1.72946E+00  4.92869E+00  4.94862E+00  5.37101E+00  7.89887E+00  1.60502E+01  1.65749E+01  2.42856E+01  1.22321E+01
   2.11738E+01  2.18419E+01  2.91981E+01  4.90261E+01  5.96342E+01  6.12023E+01  6.17068E+01  8.26581E+01  1.19586E+02  1.46208E+02
   1.49643E+02  1.34639E+02  9.91139E+01  7.33499E+01  5.25717E+01  3.15406E+01  1.82805E+01  1.65105E+01  1.57739E+01  1.53417E+01
   1.34651E+01  1.55006E+01  1.15702E+01  1.20985E+01  1.21813E+00  1.04636E+01  1.45503E+01  3.09431E+00  3.18279E+00  1.12398E+01
   3.66822E+00  1.67971E+00  1.01082E+01  8.24723E+00  3.49000E+00  6.24150E+00  6.45913E+00 -8.79526E-01  7.08122E+00 -3.47576E+00
   1.20057E+01  2.15840E+00  8.94841E+00  7.72238E+00  5.03022E+00  5.94531E+00  4.29176E+00  1.08817E+01  9.50832E+00  5.49877E+00
   8.56703E+00  7.15495E+00  3.10249E-01  1.06261E+01  7.65005E+00  5.98262E+00  6.54166E+00  6.96787E+00  8.38147E+00  1.00701E+01
   2.34456E+00  2.66665E+00  1.32713E+00  8.01078E-01  1.01916E+01 -2.01520E-01  1.04605E+01  2.70814E+00  1.86945E+00  2.68327E+00
   8.96118E+00  3.69469E+00  5.29832E+00  3.94700E+00  6.42021E+00  9.74486E+00 -2.02635E+00  7.96914E+00 -1.35077E-01  1.92238E+00
   1.37153E+01  6.19148E+00  8.85869E+00  4.49866E+00  7.86821E+00  1.38428E+01  8.49651E+00  1.14041E+01  1.56505E+01  1.15924E+01
   2.01716E+01  8.48847E+00  8.21035E+00  1.29437E+01  1.70289E+01  1.56170E+01  1.64781E+01  2.41921E+01  1.51043E+01  1.59755E+01
   1.28372E+01  1.38894E+01  1.42318E+01  1.38906E+01  1.97738E+01  1.43411E+01  1.87474E+01  1.83540E+01  1.17999E+01  1.57307E+01
   7.37408E+00  1.39825E+01  1.75915E+01  2.34104E+01  9.57068E+00  1.57357E+01  1.21425E+01  1.95047E+01  2.67166E+01  2.13649E+01
   1.75884E+01  1.91891E+01  1.79851E+01  1.88740E+01  2.32252E+01  2.51627E+01  2.10087E+01  1.29571E+01  1.35507E+01  1.64340E+01
   1.66824E+01  1.72486E+01  1.72204E+01  1.11301E+01  1.31965E+01  9.87016E+00  1.86489E+01  6.65881E+00  2.02463E+01  2.04116E+01
   1.79262E+01  2.14320E+01  1.72321E+01  1.87385E+01  2.46911E+01  1.96208E+01  2.87884E+01  2.74772E+01  2.64121E+01  2.31995E+01
   2.07676E+01  3.10360E+01  2.65201E+01  2.94466E+01  2.66867E+01  3.18384E+01  2.70497E+01  3.51710E+01  2.87346E+01  3.08823E+01
   2.41785E+01  2.76846E+01  2.51896E+01  2.86116E+01  2.28024E+01  1.94922E+01  2.03645E+01  2.00142E+01  1.67049E+01  1.94261E+01
   1.92053E+01  1.86140E+01  1.87233E+01  1.12476E+01  2.19833E+01  1.46797E+01  1.42272E+01  9.05977E+00  1.39641E+01  1.35274E+01
   1.76709E+01  1.88477E+01  1.73133E+01  1.73888E+01  1.01563E+01  1.79072E+01  1.42757E+01  1.11089E+01  9.32891E+00  1.05818E+01
   1.03892E+01  8.62966E+00  7.86430E+00  1.31995E+01  1.33543E+01  7.82412E+00  2.07521E+01  1.32676E+01  1.20247E+01  8.10264E+00
   1.07877E+01  7.41303E+00  1.62391E+01  3.12826E+00  7.70380E+00  9.92194E+00  3.58474E+00  1.88973E+01  9.39718E+00  8.54192E+00
   1.75507E+01  7.98391E+00  1.74469E+01  6.46801E+00  9.64465E+00  1.17125E+01  4.84257E+00  1.39148E+01  1.26892E+01  1.45132E+01
   8.18038E+00  1.25331E+01  8.13588E+00  1.46809E+01  1.72172E+01  1.49529E+01  7.44717E+00  1.37577E+01  1.35016E+01  1.10611E+01
   6.82787E+00  1.52803E+01  1.10275E+01  1.14924E+01  6.70762E+00  1.64919E+01  9.34233E+00  6.93260E+00  1.40247E+01  8.67388E+00
   1.16589E+01  9.71253E+00  1.01015E+01  1.03470E+01  1.05985E+01  1.10418E+01  1.42639E+01  1.60931E+01
 NY points of the fit to the data follow
  -5.73180E+01 -5.68878E+01 -5.59389E+01 -5.38998E+01 -5.04793E+01 -4.54027E+01 -3.68088E+01 -2.52567E+01 -1.42800E+01 -7.90786E+00
  -7.88279E+00 -1.28620E+01 -2.00568E+01 -2.72615E+01 -3.30187E+01 -3.68625E+01 -3.95534E+01 -4.14525E+01 -4.24478E+01 -4.29422E+01
  -4.30539E+01 -4.31319E+01 -4.33530E+01 -4.34535E+01 -4.30914E+01 -4.27503E+01 -4.13883E+01 -3.73725E+01 -3.15237E+01 -2.61934E+01
  -2.30233E+01 -2.20149E+01 -2.28028E+01 -2.53035E+01 -2.89125E+01 -3.24389E+01 -3.52139E+01 -3.71106E+01 -3.77293E+01 -3.71519E+01
  -3.56529E+01 -3.36922E+01 -3.16950E+01 -2.91440E+01 -2.55253E+01 -2.15740E+01 -1.90619E+01 -1.91180E+01 -2.11694E+01 -2.40239E+01
  -2.68692E+01 -2.91758E+01 -3.05511E+01 -3.09890E+01 -3.08905E+01 -3.03284E+01 -2.91612E+01 -2.75754E+01 -2.60182E+01 -2.50744E+01
  -2.50650E+01 -2.58193E+01 -2.69408E+01 -2.79026E+01 -2.83277E+01 -2.80935E+01 -2.73865E+01 -2.64833E+01 -2.54983E+01 -2.44331E+01
  -2.34582E+01 -2.28252E+01 -2.25022E+01 -2.23375E+01 -2.22836E+01 -2.23674E+01 -2.25902E+01 -2.28023E+01 -2.29051E+01 -2.28350E+01
  -2.25264E+01 -2.20409E+01 -2.15677E+01 -2.10623E+01 -2.06348E+01 -2.06772E+01 -2.12744E+01 -2.20055E+01 -2.23648E+01 -2.21481E+01
  -2.14589E+01 -2.05852E+01 -1.96684E+01 -1.88127E+01 -1.81268E+01 -1.73559E+01 -1.54607E+01 -1.05472E+01 -2.79095E+00  1.14976E+01
   3.45782E+01  5.85297E+01  7.14464E+01  6.86801E+01  5.48053E+01  3.75754E+01  2.15711E+01  8.50411E+00 -2.76466E-01 -5.48356E+00
  -9.34014E+00 -1.13642E+01 -1.19833E+01 -1.21649E+01 -1.21736E+01 -1.20911E+01 -1.19574E+01 -1.17996E+01 -1.15623E+01 -1.10759E+01
  -9.75897E+00 -5.69550E+00  8.25917E-01  1.18576E+01  3.14642E+01  5.46430E+01  6.97487E+01  7.02965E+01  5.91605E+01  4.37915E+01
   2.95526E+01  1.78120E+01  9.06265E+00  2.93092E+00 -2.62565E+00 -6.88875E+00 -8.73398E+00 -9.00738E+00 -8.07432E+00 -6.43408E+00
  -4.89202E+00 -4.01757E+00 -3.81154E+00 -4.10076E+00 -4.63487E+00 -5.16684E+00 -5.60692E+00 -5.94697E+00 -6.25740E+00 -6.60975E+00
  -6.98284E+00 -7.41830E+00 -7.80901E+00 -7.95350E+00 -7.75432E+00 -7.36825E+00 -7.02535E+00 -7.06096E+00 -7.83996E+00 -9.07657E+00
  -1.00829E+01 -1.01964E+01 -9.30069E+00 -8.21069E+00 -7.84063E+00 -8.36851E+00 -9.47677E+00 -1.06165E+01 -1.13148E+01 -1.15797E+01
  -1.16460E+01 -1.18269E+01 -1.23939E+01 -1.34495E+01 -1.44798E+01 -1.47870E+01 -1.40923E+01 -1.29642E+01 -1.24196E+01 -1.26889E+01
  -1.30039E+01 -1.28290E+01 -1.22763E+01 -1.17283E+01 -1.14956E+01 -1.10997E+01 -9.61411E+00 -6.94240E+00 -3.63136E+00 -5.84940E-01
   1.22878E+00  1.51721E+00  4.84104E-01 -1.14416E+00 -2.74879E+00 -4.14583E+00 -5.01874E+00 -4.86641E+00 -3.63626E+00 -1.78355E+00
   4.01613E-01  2.75768E+00  4.83486E+00  5.95685E+00  5.37709E+00  3.28417E+00  4.63768E-02 -3.95035E+00 -7.51845E+00 -9.44113E+00
  -9.32374E+00 -7.40178E+00 -3.69532E+00  1.81097E+00  7.59719E+00  1.10907E+01  1.08683E+01  7.70027E+00  2.87652E+00 -2.76458E+00
  -8.22215E+00 -1.15169E+01 -1.10978E+01 -7.50778E+00 -2.47878E+00  2.39317E+00  6.12342E+00  8.40728E+00  8.97580E+00  8.22125E+00
   7.21131E+00  6.88106E+00  7.43820E+00  8.55740E+00  9.98346E+00  1.14995E+01  1.25379E+01  1.23992E+01  1.12422E+01  9.53964E+00
   7.72509E+00  6.43685E+00  6.56370E+00  8.31764E+00  1.08400E+01  1.31759E+01  1.49174E+01  1.59530E+01  1.64200E+01  1.72395E+01
   1.94388E+01  2.33464E+01  3.07184E+01  4.10839E+01  5.24302E+01  6.25413E+01  7.08482E+01  8.91261E+01  1.19235E+02  1.44314E+02
   1.48321E+02  1.31306E+02  1.03775E+02  7.62673E+01  5.30442E+01  3.54454E+01  2.49006E+01  1.82273E+01  1.27514E+01  1.05785E+01
   9.71266E+00  9.27426E+00  9.09673E+00  8.97952E+00  8.67116E+00  8.18257E+00  7.65480E+00  7.16781E+00  6.70685E+00  6.33619E+00
   6.11896E+00  6.01374E+00  5.93770E+00  5.84760E+00  5.72236E+00  5.57173E+00  5.40196E+00  5.23219E+00  5.13039E+00  5.13859E+00
   5.24107E+00  5.39567E+00  5.54360E+00  5.65731E+00  5.73782E+00  5.77186E+00  5.76796E+00  5.76861E+00  5.80047E+00  5.86713E+00
   5.96024E+00  6.06091E+00  6.15570E+00  6.23301E+00  6.28421E+00  6.31376E+00  6.32786E+00  6.32642E+00  6.31601E+00  6.30035E+00
   6.28100E+00  6.26012E+00  6.24116E+00  6.22782E+00  6.22307E+00  6.22922E+00  6.24843E+00  6.28416E+00  6.34047E+00  6.42277E+00
   6.54112E+00  6.71083E+00  6.90875E+00  7.15025E+00  7.42438E+00  7.57853E+00  7.48393E+00  7.19399E+00  6.87724E+00  6.69719E+00
   6.68688E+00  6.82838E+00  7.22897E+00  7.92025E+00  8.73535E+00  9.49032E+00  1.00811E+01  1.05142E+01  1.08684E+01  1.11955E+01
   1.15471E+01  1.19828E+01  1.24713E+01  1.30033E+01  1.36054E+01  1.41192E+01  1.43709E+01  1.43716E+01  1.42881E+01  1.43097E+01
   1.44754E+01  1.47889E+01  1.53550E+01  1.61633E+01  1.69993E+01  1.76705E+01  1.81071E+01  1.83299E+01  1.84128E+01  1.83990E+01
   1.83340E+01  1.82531E+01  1.81364E+01  1.79888E+01  1.78269E+01  1.76431E+01  1.74363E+01  1.72095E+01  1.69674E+01  1.67158E+01
   1.64599E+01  1.62056E+01  1.59587E+01  1.57256E+01  1.55122E+01  1.53244E+01  1.51673E+01  1.50459E+01  1.49650E+01  1.49300E+01
   1.49455E+01  1.50158E+01  1.51446E+01  1.53360E+01  1.55935E+01  1.59207E+01  1.63203E+01  1.67937E+01  1.73412E+01  1.79621E+01
   1.86542E+01  1.94132E+01  2.02320E+01  2.11011E+01  2.20081E+01  2.29385E+01  2.38754E+01  2.47997E+01  2.56902E+01  2.65251E+01
   2.72821E+01  2.79409E+01  2.84823E+01  2.88900E+01  2.91507E+01  2.92558E+01  2.92013E+01  2.89886E+01  2.86235E+01  2.81166E+01
   2.74816E+01  2.67363E+01  2.59006E+01  2.49961E+01  2.40443E+01  2.30663E+01  2.20814E+01  2.11076E+01  2.01605E+01  1.92530E+01
   1.83948E+01  1.75928E+01  1.68512E+01  1.61727E+01  1.55575E+01  1.50043E+01  1.45103E+01  1.40717E+01  1.36843E+01  1.33440E+01
   1.30463E+01  1.27869E+01  1.25611E+01  1.23649E+01  1.21946E+01  1.20473E+01  1.19201E+01  1.18104E+01  1.17155E+01  1.16335E+01
   1.15629E+01  1.15024E+01  1.14508E+01  1.14068E+01  1.13692E+01  1.13373E+01  1.13107E+01  1.12889E+01  1.12712E+01  1.12571E+01
   1.12458E+01  1.12375E+01  1.12319E+01  1.12288E+01  1.12278E+01  1.12285E+01  1.12307E+01  1.12347E+01  1.12401E+01  1.12471E+01
   1.12550E+01  1.12639E+01  1.12736E+01  1.12845E+01  1.12964E+01  1.13091E+01  1.13222E+01  1.13360E+01  1.13503E+01  1.13655E+01
   1.13813E+01  1.13976E+01  1.14141E+01  1.14311E+01  1.14485E+01  1.14667E+01  1.14852E+01  1.15040E+01  1.15229E+01  1.15422E+01
   1.15621E+01  1.15824E+01  1.16030E+01  1.16238E+01  1.16447E+01  1.16661E+01  1.16880E+01  1.17103E+01  1.17328E+01  1.17555E+01
   1.17784E+01  1.18020E+01  1.18260E+01  1.18504E+01  1.18750E+01  1.18999E+01  1.19253E+01  1.19515E+01
 NY background values follow
    -5.979E+01   -5.931E+01   -5.883E+01   -5.835E+01   -5.787E+01   -5.739E+01   -5.691E+01   -5.643E+01   -5.595E+01   -5.547E+01
    -5.499E+01   -5.451E+01   -5.403E+01   -5.355E+01   -5.307E+01   -5.259E+01   -5.212E+01   -5.164E+01   -5.116E+01   -5.069E+01
    -5.021E+01   -4.974E+01   -4.927E+01   -4.880E+01   -4.833E+01   -4.786E+01   -4.739E+01   -4.692E+01   -4.646E+01   -4.599E+01
    -4.553E+01   -4.507E+01   -4.460E+01   -4.415E+01   -4.369E+01   -4.323E+01   -4.278E+01   -4.233E+01   -4.187E+01   -4.143E+01
    -4.098E+01   -4.053E+01   -4.009E+01   -3.965E+01   -3.921E+01   -3.877E+01   -3.834E+01   -3.791E+01   -3.747E+01   -3.705E+01
    -3.662E+01   -3.620E+01   -3.578E+01   -3.536E+01   -3.494E+01   -3.453E+01   -3.412E+01   -3.371E+01   -3.330E+01   -3.290E+01
    -3.250E+01   -3.210E+01   -3.170E+01   -3.131E+01   -3.092E+01   -3.053E+01   -3.015E+01   -2.977E+01   -2.939E+01   -2.901E+01
    -2.864E+01   -2.827E+01   -2.790E+01   -2.754E+01   -2.718E+01   -2.682E+01   -2.647E+01   -2.612E+01   -2.577E+01   -2.542E+01
    -2.508E+01   -2.474E+01   -2.441E+01   -2.408E+01   -2.375E+01   -2.342E+01   -2.310E+01   -2.278E+01   -2.247E+01   -2.216E+01
    -2.185E+01   -2.155E+01   -2.124E+01   -2.095E+01   -2.065E+01   -2.036E+01   -2.008E+01   -1.980E+01   -1.952E+01   -1.924E+01
    -1.897E+01   -1.870E+01   -1.844E+01   -1.818E+01   -1.792E+01   -1.766E+01   -1.741E+01   -1.716E+01   -1.692E+01   -1.668E+01
    -1.644E+01   -1.621E+01   -1.598E+01   -1.575E+01   -1.553E+01   -1.531E+01   -1.509E+01   -1.488E+01   -1.467E+01   -1.446E+01
    -1.426E+01   -1.406E+01   -1.387E+01   -1.367E+01   -1.348E+01   -1.330E+01   -1.312E+01   -1.294E+01   -1.276E+01   -1.259E+01
    -1.242E+01   -1.225E+01   -1.209E+01   -1.193E+01   -1.177E+01   -1.162E+01   -1.147E+01   -1.133E+01   -1.118E+01   -1.104E+01
    -1.090E+01   -1.077E+01   -1.064E+01   -1.051E+01   -1.038E+01   -1.026E+01   -1.014E+01   -1.002E+01   -9.904E+00   -9.790E+00
    -9.678E+00   -9.568E+00   -9.460E+00   -9.353E+00   -9.249E+00   -9.146E+00   -9.045E+00   -8.946E+00   -8.848E+00   -8.752E+00
    -8.656E+00   -8.562E+00   -8.469E+00   -8.378E+00   -8.287E+00   -8.197E+00   -8.108E+00   -8.019E+00   -7.931E+00   -7.844E+00
    -7.758E+00   -7.671E+00   -7.585E+00   -7.499E+00   -7.414E+00   -7.328E+00   -7.242E+00   -7.157E+00   -7.071E+00   -6.985E+00
    -6.898E+00   -6.811E+00   -6.723E+00   -6.635E+00   -6.547E+00   -6.458E+00   -6.369E+00   -6.280E+00   -6.190E+00   -6.100E+00
    -6.009E+00   -5.918E+00   -5.828E+00   -5.737E+00   -5.645E+00   -5.554E+00   -5.463E+00   -5.371E+00   -5.280E+00   -5.189E+00
    -5.097E+00   -5.006E+00   -4.915E+00   -4.823E+00   -4.732E+00   -4.642E+00   -4.551E+00   -4.461E+00   -4.370E+00   -4.281E+00
    -4.191E+00   -4.102E+00   -4.013E+00   -3.925E+00   -3.837E+00   -3.749E+00   -3.662E+00   -3.576E+00   -3.490E+00   -3.405E+00
    -3.320E+00   -3.236E+00   -3.153E+00   -3.070E+00   -2.988E+00   -2.907E+00   -2.827E+00   -2.747E+00   -2.668E+00   -2.590E+00
    -2.513E+00   -2.437E+00   -2.361E+00   -2.286E+00   -2.211E+00   -2.138E+00   -2.065E+00   -1.992E+00   -1.921E+00   -1.849E+00
    -1.779E+00   -1.709E+00   -1.639E+00   -1.571E+00   -1.502E+00   -1.434E+00   -1.367E+00   -1.300E+00   -1.234E+00   -1.168E+00
    -1.102E+00   -1.037E+00   -9.720E-01   -9.076E-01   -8.435E-01   -7.797E-01   -7.163E-01   -6.532E-01   -5.903E-01   -5.277E-01
    -4.654E-01   -4.033E-01   -3.414E-01   -2.797E-01   -2.182E-01   -1.568E-01   -9.563E-02   -3.455E-02    2.642E-02    8.729E-02
     1.481E-01    2.088E-01    2.695E-01    3.302E-01    3.908E-01    4.515E-01    5.121E-01    5.727E-01    6.333E-01    6.940E-01
     7.547E-01    8.154E-01    8.761E-01    9.370E-01    9.978E-01    1.059E+00    1.120E+00    1.181E+00    1.242E+00    1.303E+00
     1.365E+00    1.426E+00    1.488E+00    1.550E+00    1.612E+00    1.674E+00    1.736E+00    1.799E+00    1.862E+00    1.924E+00
     1.987E+00    2.051E+00    2.114E+00    2.178E+00    2.242E+00    2.306E+00    2.371E+00    2.435E+00    2.500E+00    2.566E+00
     2.631E+00    2.697E+00    2.763E+00    2.830E+00    2.896E+00    2.964E+00    3.031E+00    3.099E+00    3.167E+00    3.235E+00
     3.304E+00    3.373E+00    3.443E+00    3.512E+00    3.582E+00    3.652E+00    3.723E+00    3.793E+00    3.864E+00    3.935E+00
     4.006E+00    4.077E+00    4.149E+00    4.220E+00    4.292E+00    4.364E+00    4.436E+00    4.508E+00    4.579E+00    4.651E+00
     4.724E+00    4.796E+00    4.868E+00    4.940E+00    5.012E+00    5.083E+00    5.155E+00    5.227E+00    5.299E+00    5.370E+00
     5.442E+00    5.513E+00    5.584E+00    5.655E+00    5.726E+00    5.797E+00    5.867E+00    5.938E+00    6.008E+00    6.077E+00
     6.147E+00    6.216E+00    6.285E+00    6.354E+00    6.422E+00    6.490E+00    6.558E+00    6.625E+00    6.692E+00    6.759E+00
     6.825E+00    6.891E+00    6.957E+00    7.022E+00    7.087E+00    7.152E+00    7.216E+00    7.280E+00    7.344E+00    7.407E+00
     7.470E+00    7.532E+00    7.594E+00    7.655E+00    7.716E+00    7.777E+00    7.837E+00    7.897E+00    7.957E+00    8.016E+00
     8.074E+00    8.132E+00    8.190E+00    8.247E+00    8.304E+00    8.360E+00    8.416E+00    8.471E+00    8.526E+00    8.581E+00
     8.634E+00    8.688E+00    8.741E+00    8.793E+00    8.845E+00    8.896E+00    8.947E+00    8.997E+00    9.047E+00    9.096E+00
     9.145E+00    9.193E+00    9.241E+00    9.288E+00    9.335E+00    9.381E+00    9.426E+00    9.472E+00    9.516E+00    9.561E+00
     9.605E+00    9.648E+00    9.691E+00    9.733E+00    9.775E+00    9.817E+00    9.858E+00    9.899E+00    9.939E+00    9.979E+00
     1.002E+01    1.006E+01    1.010E+01    1.013E+01    1.017E+01    1.021E+01    1.025E+01    1.028E+01    1.032E+01    1.036E+01
     1.039E+01    1.043E+01    1.046E+01    1.050E+01    1.053E+01    1.057E+01    1.060E+01    1.063E+01    1.067E+01    1.070E+01
     1.073E+01    1.077E+01    1.080E+01    1.083E+01    1.086E+01    1.089E+01    1.092E+01    1.096E+01    1.099E+01    1.102E+01
     1.105E+01    1.108E+01    1.111E+01    1.114E+01    1.117E+01    1.119E+01    1.122E+01    1.125E+01    1.128E+01    1.131E+01
     1.134E+01    1.137E+01    1.139E+01    1.142E+01    1.145E+01    1.148E+01    1.151E+01    1.153E+01    1.156E+01    1.159E+01
     1.162E+01    1.164E+01    1.167E+01    1.170E+01    1.173E+01    1.175E+01    1.178E+01    1.181E+01    1.184E+01    1.186E+01
     1.189E+01    1.192E+01    1.195E+01    1.197E+01    1.200E+01    1.203E+01    1.206E+01    1.208E+01
 Ala      Conc. = 6.81E+01
