 LCModel (Version 6.3-1L) Copyright: S.W. Provencher.          Ref.: Magn. Reson. Med. 30:672-679 (1993).                
 Slice#1 Row#11 Col#1  K_02_press_1_raw_act
 36 lines in following concentration table = NCONC+1
    Conc.  %SD /Cr+PCr  Metabolite                                         
    9.031 509%   0.120 Ala                                                 
    4.648 159% 6.2E-02 Asp                                                 
    0.000 999%   0.000 Cr                                                  
   75.020  26%   1.000 PCr                                                 
    3.218 138% 4.3E-02 GABA                                                
    2.974 150% 4.0E-02 Glc                                                 
    0.000 999%   0.000 Gln                                                 
  258.787  44%   3.450 Glu                                                 
   10.251  75%   0.137 GPC                                                 
    0.000 999%   0.000 PCh                                                 
    0.000 999%   0.000 GSH                                                 
  129.998  76%   1.733 Ins                                                 
  128.437  43%   1.712 Lac                                                 
    0.000 999%   0.000 NAA                                                 
    0.000 999%   0.000 NAAG                                                
    0.630 235% 8.4E-03 Scyllo                                              
    3.114 237% 4.2E-02 Tau                                                 
    0.000 999%   0.000 -CrCH2                                              
   10.251  75%   0.137 GPC+PCh                                             
    0.000 999%   0.000 NAA+NAAG                                            
   75.020  26%   1.000 Cr+PCr                                              
  258.787  44%   3.450 Glu+Gln                                             
   22.714 533%   0.303 Lip13a                                              
    0.000 999%   0.000 Lip13b                                              
    6.193 528% 8.3E-02 Lip09                                               
   91.176  64%   1.215 MM09                                                
    3.498 528% 4.7E-02 Lip20                                               
  102.772  89%   1.370 MM20                                                
   24.757 104%   0.330 MM12                                                
  109.880  70%   1.465 MM14                                                
   44.862 115%   0.598 MM17                                                
   22.714 533%   0.303 Lip13a+Lip13b                                       
  157.351  84%   2.097 MM14+Lip13a+Lip13b+MM12                             
   97.369  62%   1.298 MM09+Lip09                                          
  106.270  86%   1.417 MM20+Lip20                                          
   6 lines in following misc. output table
  FWHM = 0.054 ppm    S/N =   1                                            
  Data shift = 0.023 ppm                                                   
  Ph: 177 deg       7.2 deg/ppm                                            
  alphaB,S = 8.9E-01,   1.2E+01                                            
   14 spline knots.   Ns = 5(1)                                            
  ( 7) 5 infls.   ( 7) 3 extrs.                                            
  498 points on ppm-axis = NY
      4.000000     3.992357     3.984714     3.977070     3.969427     3.961784     3.954141     3.946497     3.938854     3.931211
      3.923568     3.915925     3.908281     3.900638     3.892995     3.885352     3.877708     3.870065     3.862422     3.854779
      3.847136     3.839492     3.831849     3.824206     3.816563     3.808919     3.801276     3.793633     3.785990     3.778347
      3.770703     3.763060     3.755417     3.747774     3.740130     3.732487     3.724844     3.717201     3.709558     3.701914
      3.694271     3.686628     3.678985     3.671341     3.663698     3.656055     3.648412     3.640769     3.633125     3.625482
      3.617839     3.610196     3.602552     3.594909     3.587266     3.579623     3.571980     3.564336     3.556693     3.549050
      3.541407     3.533763     3.526120     3.518477     3.510834     3.503191     3.495547     3.487904     3.480261     3.472618
      3.464974     3.457331     3.449688     3.442045     3.434402     3.426758     3.419115     3.411472     3.403829     3.396185
      3.388542     3.380899     3.373256     3.365613     3.357969     3.350326     3.342683     3.335040     3.327396     3.319753
      3.312110     3.304467     3.296824     3.289180     3.281537     3.273894     3.266251     3.258607     3.250964     3.243321
      3.235678     3.228034     3.220391     3.212748     3.205105     3.197462     3.189818     3.182175     3.174532     3.166889
      3.159245     3.151602     3.143959     3.136316     3.128673     3.121029     3.113386     3.105743     3.098100     3.090456
      3.082813     3.075170     3.067527     3.059884     3.052240     3.044597     3.036954     3.029311     3.021667     3.014024
      3.006381     2.998738     2.991095     2.983451     2.975808     2.968165     2.960522     2.952878     2.945235     2.937592
      2.929949     2.922306     2.914662     2.907019     2.899376     2.891733     2.884089     2.876446     2.868803     2.861160
      2.853517     2.845873     2.838230     2.830587     2.822944     2.815300     2.807657     2.800014     2.792371     2.784728
      2.777084     2.769441     2.761798     2.754155     2.746511     2.738868     2.731225     2.723582     2.715939     2.708295
      2.700652     2.693009     2.685366     2.677722     2.670079     2.662436     2.654793     2.647150     2.639506     2.631863
      2.624220     2.616577     2.608933     2.601290     2.593647     2.586004     2.578361     2.570717     2.563074     2.555431
      2.547788     2.540144     2.532501     2.524858     2.517215     2.509572     2.501928     2.494285     2.486642     2.478999
      2.471355     2.463712     2.456069     2.448426     2.440783     2.433139     2.425496     2.417853     2.410210     2.402566
      2.394923     2.387280     2.379637     2.371994     2.364350     2.356707     2.349064     2.341421     2.333777     2.326134
      2.318491     2.310848     2.303205     2.295561     2.287918     2.280275     2.272632     2.264988     2.257345     2.249702
      2.242059     2.234416     2.226772     2.219129     2.211486     2.203843     2.196199     2.188556     2.180913     2.173270
      2.165627     2.157983     2.150340     2.142697     2.135054     2.127410     2.119767     2.112124     2.104481     2.096838
      2.089194     2.081551     2.073908     2.066265     2.058621     2.050978     2.043335     2.035692     2.028049     2.020405
      2.012762     2.005119     1.997476     1.989833     1.982190     1.974546     1.966903     1.959260     1.951617     1.943974
      1.936331     1.928688     1.921045     1.913402     1.905759     1.898115     1.890472     1.882829     1.875186     1.867543
      1.859900     1.852257     1.844614     1.836971     1.829327     1.821684     1.814041     1.806398     1.798755     1.791112
      1.783469     1.775826     1.768183     1.760540     1.752896     1.745253     1.737610     1.729967     1.722324     1.714681
      1.707038     1.699395     1.691752     1.684108     1.676465     1.668822     1.661179     1.653536     1.645893     1.638250
      1.630607     1.622964     1.615321     1.607677     1.600034     1.592391     1.584748     1.577105     1.569462     1.561819
      1.554176     1.546533     1.538890     1.531246     1.523603     1.515960     1.508317     1.500674     1.493031     1.485388
      1.477745     1.470102     1.462458     1.454815     1.447172     1.439529     1.431886     1.424243     1.416600     1.408957
      1.401314     1.393671     1.386027     1.378384     1.370741     1.363098     1.355455     1.347812     1.340169     1.332526
      1.324883     1.317240     1.309596     1.301953     1.294310     1.286667     1.279024     1.271381     1.263738     1.256095
      1.248452     1.240808     1.233165     1.225522     1.217879     1.210236     1.202593     1.194950     1.187307     1.179664
      1.172021     1.164377     1.156734     1.149091     1.141448     1.133805     1.126162     1.118519     1.110876     1.103233
      1.095590     1.087946     1.080303     1.072660     1.065017     1.057374     1.049731     1.042088     1.034445     1.026802
      1.019158     1.011515     1.003872     0.996229     0.988586     0.980943     0.973300     0.965657     0.958014     0.950371
      0.942727     0.935084     0.927441     0.919798     0.912155     0.904512     0.896869     0.889226     0.881583     0.873940
      0.866296     0.858653     0.851010     0.843367     0.835724     0.828081     0.820438     0.812795     0.805152     0.797508
      0.789865     0.782222     0.774579     0.766936     0.759293     0.751650     0.744007     0.736364     0.728721     0.721077
      0.713434     0.705791     0.698148     0.690505     0.682862     0.675219     0.667576     0.659933     0.652290     0.644646
      0.637003     0.629360     0.621717     0.614074     0.606431     0.598788     0.591145     0.583502     0.575858     0.568215
      0.560572     0.552929     0.545286     0.537643     0.530000     0.522357     0.514714     0.507071     0.499427     0.491784
      0.484141     0.476498     0.468855     0.461212     0.453569     0.445925     0.438282     0.430639     0.422996     0.415353
      0.407710     0.400067     0.392424     0.384780     0.377137     0.369494     0.361851     0.354208     0.346565     0.338922
      0.331278     0.323635     0.315992     0.308349     0.300706     0.293063     0.285420     0.277777     0.270133     0.262490
      0.254847     0.247204     0.239561     0.231918     0.224275     0.216631     0.208988     0.201345
 NY phased data points follow
   3.11275E+01  3.10550E+01  2.79550E+01  3.04136E+01  2.91104E+01  3.12756E+01  2.92417E+01  2.79473E+01  2.77225E+01  3.01126E+01
   2.84981E+01  2.88183E+01  2.81246E+01  2.51497E+01  2.63427E+01  2.74703E+01  2.84611E+01  2.59832E+01  2.41048E+01  2.57270E+01
   2.40685E+01  2.41841E+01  2.46650E+01  2.53651E+01  2.51498E+01  2.39148E+01  2.44539E+01  2.28689E+01  2.35402E+01  2.29395E+01
   2.16599E+01  2.17449E+01  2.25138E+01  2.34727E+01  2.47080E+01  2.17416E+01  2.36939E+01  2.18028E+01  2.44313E+01  2.33985E+01
   2.32810E+01  2.04655E+01  2.47443E+01  2.00982E+01  2.25900E+01  2.11092E+01  2.32700E+01  2.40864E+01  2.10061E+01  2.06846E+01
   2.29504E+01  2.15293E+01  2.38923E+01  2.26082E+01  2.18656E+01  2.28503E+01  2.16237E+01  2.16649E+01  1.93451E+01  2.01591E+01
   1.95434E+01  2.02859E+01  1.80640E+01  1.95762E+01  1.88408E+01  1.84113E+01  2.07167E+01  1.84559E+01  1.99404E+01  1.80445E+01
   1.97253E+01  1.79490E+01  1.72030E+01  1.62828E+01  1.82196E+01  1.88230E+01  1.96825E+01  1.74269E+01  1.73937E+01  1.75602E+01
   1.51884E+01  1.65426E+01  1.79683E+01  1.64025E+01  1.61781E+01  1.49986E+01  1.81936E+01  1.63278E+01  1.50132E+01  1.65473E+01
   1.61396E+01  1.50541E+01  1.40238E+01  1.42778E+01  1.31317E+01  1.52744E+01  1.45043E+01  1.73830E+01  1.64020E+01  1.56781E+01
   1.58823E+01  1.71576E+01  1.59283E+01  1.78125E+01  1.85192E+01  1.76080E+01  1.36391E+01  1.29634E+01  1.69168E+01  1.50297E+01
   1.62840E+01  1.31742E+01  1.44818E+01  1.40056E+01  1.28028E+01  1.42592E+01  1.37934E+01  1.35001E+01  1.36306E+01  1.22937E+01
   1.46383E+01  1.65446E+01  1.47993E+01  1.54659E+01  1.32676E+01  1.48757E+01  1.63077E+01  1.58537E+01  1.99154E+01  1.39128E+01
   1.40807E+01  1.40396E+01  1.49886E+01  1.58336E+01  1.32076E+01  1.26740E+01  1.46280E+01  1.40365E+01  1.24983E+01  1.34183E+01
   1.62727E+01  1.40353E+01  1.32738E+01  1.32813E+01  1.40203E+01  1.33948E+01  1.26935E+01  1.39345E+01  1.57448E+01  1.14290E+01
   1.24679E+01  1.38814E+01  1.32872E+01  1.33661E+01  1.23062E+01  1.52119E+01  1.30718E+01  1.62433E+01  1.41775E+01  1.44328E+01
   1.52042E+01  1.33862E+01  1.38833E+01  1.24563E+01  1.47870E+01  1.44805E+01  1.08802E+01  1.44156E+01  1.15095E+01  1.30595E+01
   1.29376E+01  1.32325E+01  1.13321E+01  1.36459E+01  1.09159E+01  1.51065E+01  1.21286E+01  1.08073E+01  1.26187E+01  1.42400E+01
   1.17963E+01  1.30668E+01  1.09119E+01  1.35772E+01  1.27493E+01  1.34390E+01  1.26134E+01  1.20250E+01  1.25638E+01  1.47814E+01
   1.26562E+01  1.26795E+01  1.14992E+01  1.25063E+01  1.20107E+01  1.16175E+01  1.22001E+01  1.17542E+01  1.25170E+01  8.92380E+00
   1.19986E+01  1.08627E+01  1.14150E+01  1.05553E+01  1.30158E+01  1.05493E+01  1.20601E+01  1.20510E+01  1.03513E+01  8.62624E+00
   1.01909E+01  1.35743E+01  1.36766E+01  1.01549E+01  1.38541E+01  1.09480E+01  1.27837E+01  1.03101E+01  1.24526E+01  1.04566E+01
   1.02249E+01  8.44446E+00  8.32270E+00  1.08213E+01  1.19067E+01  1.05198E+01  1.05528E+01  1.19381E+01  1.00561E+01  1.52727E+01
   1.06149E+01  8.61604E+00  1.10466E+01  1.22857E+01  1.03662E+01  1.03358E+01  1.03514E+01  1.07213E+01  1.16210E+01  1.23567E+01
   1.19253E+01  1.02537E+01  1.10124E+01  1.13083E+01  1.27654E+01  1.17912E+01  9.59495E+00  1.04520E+01  1.18838E+01  1.14617E+01
   9.55255E+00  5.62817E+00  8.48265E+00  9.49667E+00  9.84130E+00  1.04332E+01  6.87640E+00  7.64548E+00  1.10534E+01  1.02234E+01
   1.13114E+01  1.34146E+01  7.85109E+00  7.95316E+00  8.71680E+00  7.79905E+00  9.34645E+00  7.76455E+00  1.07785E+01  8.57786E+00
   1.05755E+01  1.04943E+01  1.27204E+01  1.11547E+01  9.68236E+00  1.04630E+01  7.30048E+00  8.70475E+00  1.04940E+01  9.24266E+00
   9.73321E+00  8.24058E+00  6.50452E+00  6.48524E+00  8.86383E+00  7.34160E+00  1.00994E+01  8.71876E+00  7.17949E+00  9.34945E+00
   8.35349E+00  9.00625E+00  8.31253E+00  1.13714E+01  8.11251E+00  6.37550E+00  9.63008E+00  8.28365E+00  8.56577E+00  8.36929E+00
   8.24255E+00  7.49774E+00  1.10755E+01  9.27473E+00  1.14499E+01  8.71457E+00  9.24835E+00  9.92137E+00  1.10522E+01  7.24415E+00
   7.28870E+00  1.11401E+01  8.87301E+00  6.96368E+00  9.11053E+00  9.37276E+00  6.27980E+00  7.12322E+00  9.37475E+00  9.06652E+00
   6.03899E+00  1.15943E+01  1.02585E+01  8.88046E+00  4.56565E+00  8.17541E+00  7.52753E+00  9.65981E+00  7.06267E+00  8.30645E+00
   9.60515E+00  9.83862E+00  7.76320E+00  9.37659E+00  8.87642E+00  8.39846E+00  6.53190E+00  9.87164E+00  6.86745E+00  9.56107E+00
   9.24448E+00  9.70301E+00  1.12359E+01  9.97108E+00  8.82648E+00  1.04932E+01  9.69135E+00  7.63823E+00  6.33792E+00  9.75876E+00
   7.21123E+00  7.19155E+00  7.30332E+00  4.13200E+00  8.45605E+00  6.61685E+00  6.34429E+00  7.17132E+00  7.64071E+00  9.25350E+00
   9.00575E+00  7.01377E+00  8.16349E+00  7.36506E+00  7.00366E+00  7.52140E+00  8.31133E+00  7.24177E+00  7.62651E+00  6.31992E+00
   9.29398E+00  6.67788E+00  4.32219E+00  6.34889E+00  6.01464E+00  7.82956E+00  8.47447E+00  7.32294E+00  6.34624E+00  5.58235E+00
   4.93383E+00  8.63213E+00  7.08418E+00  5.66269E+00  4.51693E+00  7.72420E+00  8.30032E+00  6.82488E+00  6.93710E+00  6.04719E+00
   7.44601E+00  8.74194E+00  8.66134E+00  8.36956E+00  9.06296E+00  7.76579E+00  6.30748E+00  8.71441E+00  5.85214E+00  6.12185E+00
   6.77086E+00  6.70128E+00  6.45534E+00  6.23750E+00  8.41716E+00  8.63125E+00  5.96020E+00  6.07189E+00  7.76210E+00  7.34867E+00
   9.41192E+00  8.09288E+00  4.71365E+00  4.15687E+00  5.78391E+00  7.20120E+00  7.01822E+00  9.27361E+00  5.31487E+00  5.50919E+00
   6.66193E+00  5.96143E+00  5.47460E+00  4.53519E+00  8.33422E+00  4.91650E+00  5.38091E+00  5.80978E+00  5.66059E+00  4.82949E+00
   7.98990E+00  8.30032E+00  6.27231E+00  6.08701E+00  5.41868E+00  7.11735E+00  3.15570E+00  6.11417E+00  4.38495E+00  2.54555E+00
   5.22576E+00  7.10655E+00  7.22549E+00  6.92184E+00  7.20553E+00  6.17681E+00  7.66906E+00  5.31547E+00  5.39179E+00  3.93522E+00
   5.60162E+00  5.11321E+00  5.46902E+00  5.97686E+00  3.93028E+00  4.66926E+00  4.60703E+00  6.14868E+00  6.01488E+00  6.10474E+00
   5.73985E+00  5.78627E+00  6.02378E+00  3.39494E+00  5.48094E+00  4.65669E+00  7.72628E+00  6.19430E+00  4.82751E+00  4.79770E+00
   5.66769E+00  2.89579E+00  5.71214E+00  4.60726E+00  4.38711E+00  1.95367E+00  4.77492E+00  4.47643E+00  6.01185E+00  5.52900E+00
   5.02927E+00  4.32864E+00  6.55702E+00  6.10163E+00  3.57615E+00  8.02791E+00  3.40630E+00  5.86888E+00  3.45970E+00  3.02221E+00
   1.45576E+00  4.99545E+00  5.34249E+00  2.85294E+00  5.60429E+00  2.86914E+00  5.72094E+00  3.62684E+00
 NY points of the fit to the data follow
   2.74966E+01  2.73170E+01  2.71197E+01  2.70307E+01  2.71283E+01  2.73263E+01  2.73625E+01  2.74573E+01  2.77702E+01  2.79806E+01
   2.77631E+01  2.72593E+01  2.68588E+01  2.67025E+01  2.65682E+01  2.61210E+01  2.55649E+01  2.53018E+01  2.51546E+01  2.50449E+01
   2.49678E+01  2.49075E+01  2.47895E+01  2.46108E+01  2.44801E+01  2.43279E+01  2.40581E+01  2.37819E+01  2.36527E+01  2.36987E+01
   2.37777E+01  2.38080E+01  2.37864E+01  2.37196E+01  2.35535E+01  2.33128E+01  2.30966E+01  2.29141E+01  2.27352E+01  2.25442E+01
   2.23461E+01  2.22344E+01  2.22366E+01  2.23160E+01  2.24013E+01  2.24681E+01  2.25408E+01  2.25650E+01  2.23562E+01  2.19578E+01
   2.16077E+01  2.14268E+01  2.12777E+01  2.09926E+01  2.06839E+01  2.05237E+01  2.04707E+01  2.04519E+01  2.04441E+01  2.04347E+01
   2.03750E+01  2.02320E+01  2.00422E+01  1.98717E+01  1.97404E+01  1.96015E+01  1.94659E+01  1.93675E+01  1.92720E+01  1.91898E+01
   1.91338E+01  1.90981E+01  1.90366E+01  1.89222E+01  1.87890E+01  1.86647E+01  1.85573E+01  1.84359E+01  1.82876E+01  1.81587E+01
   1.80497E+01  1.79406E+01  1.78060E+01  1.76615E+01  1.75183E+01  1.73655E+01  1.71905E+01  1.70181E+01  1.68966E+01  1.68408E+01
   1.68081E+01  1.67645E+01  1.67159E+01  1.66831E+01  1.66631E+01  1.66330E+01  1.65650E+01  1.64940E+01  1.65287E+01  1.65608E+01
   1.65459E+01  1.66512E+01  1.68192E+01  1.68319E+01  1.66183E+01  1.63494E+01  1.62070E+01  1.61744E+01  1.60449E+01  1.57260E+01
   1.54861E+01  1.53919E+01  1.53238E+01  1.52634E+01  1.52034E+01  1.51451E+01  1.50892E+01  1.50357E+01  1.49842E+01  1.49404E+01
   1.49156E+01  1.49532E+01  1.52368E+01  1.56243E+01  1.57882E+01  1.61214E+01  1.67484E+01  1.71089E+01  1.67978E+01  1.61490E+01
   1.57356E+01  1.56800E+01  1.55497E+01  1.49138E+01  1.42487E+01  1.40323E+01  1.39466E+01  1.38815E+01  1.38253E+01  1.37748E+01
   1.37259E+01  1.36763E+01  1.36263E+01  1.35802E+01  1.35367E+01  1.34911E+01  1.34421E+01  1.33924E+01  1.33458E+01  1.33016E+01
   1.32575E+01  1.32121E+01  1.31658E+01  1.31216E+01  1.30792E+01  1.30364E+01  1.29945E+01  1.29529E+01  1.29107E+01  1.28686E+01
   1.28286E+01  1.27910E+01  1.27544E+01  1.27167E+01  1.26793E+01  1.26459E+01  1.26155E+01  1.25832E+01  1.25480E+01  1.25122E+01
   1.24780E+01  1.24445E+01  1.24100E+01  1.23743E+01  1.23388E+01  1.23024E+01  1.22652E+01  1.22289E+01  1.21936E+01  1.21597E+01
   1.21264E+01  1.20922E+01  1.20597E+01  1.20298E+01  1.19997E+01  1.19674E+01  1.19344E+01  1.19024E+01  1.18709E+01  1.18400E+01
   1.18069E+01  1.17729E+01  1.17433E+01  1.17185E+01  1.16956E+01  1.16724E+01  1.16513E+01  1.16342E+01  1.16207E+01  1.16108E+01
   1.16079E+01  1.16084E+01  1.15787E+01  1.15654E+01  1.15306E+01  1.14182E+01  1.12851E+01  1.11640E+01  1.10645E+01  1.10238E+01
   1.11065E+01  1.13498E+01  1.15368E+01  1.17558E+01  1.20219E+01  1.21419E+01  1.18464E+01  1.11907E+01  1.06505E+01  1.03695E+01
   1.00208E+01  9.45870E+00  9.16216E+00  9.52557E+00  1.00371E+01  1.03162E+01  1.04214E+01  1.06552E+01  1.10570E+01  1.12681E+01
   1.11773E+01  1.10453E+01  1.09793E+01  1.09140E+01  1.08489E+01  1.07545E+01  1.06787E+01  1.06252E+01  1.05310E+01  1.04473E+01
   1.03958E+01  1.03464E+01  1.03423E+01  1.04319E+01  1.05089E+01  1.04882E+01  1.04373E+01  1.04065E+01  1.04004E+01  1.03350E+01
   1.02058E+01  1.01535E+01  1.01977E+01  1.01854E+01  1.01052E+01  1.00476E+01  1.00302E+01  1.00266E+01  1.00490E+01  1.01118E+01
   1.01338E+01  1.00929E+01  1.00420E+01  1.00108E+01  9.99040E+00  9.92160E+00  9.83253E+00  9.74408E+00  9.66570E+00  9.57001E+00
   9.47950E+00  9.46071E+00  9.47085E+00  9.47653E+00  9.46914E+00  9.43641E+00  9.40019E+00  9.38293E+00  9.36336E+00  9.31314E+00
   9.25133E+00  9.20530E+00  9.17059E+00  9.13606E+00  9.10148E+00  9.07318E+00  9.05373E+00  9.03466E+00  9.01327E+00  8.99365E+00
   8.97554E+00  8.95757E+00  8.94004E+00  8.92478E+00  8.91224E+00  8.90008E+00  8.88789E+00  8.87668E+00  8.86598E+00  8.85470E+00
   8.84284E+00  8.83037E+00  8.81705E+00  8.80223E+00  8.78549E+00  8.76706E+00  8.74736E+00  8.72661E+00  8.70456E+00  8.68120E+00
   8.65742E+00  8.63373E+00  8.61039E+00  8.58780E+00  8.56641E+00  8.54670E+00  8.52912E+00  8.51411E+00  8.50212E+00  8.49379E+00
   8.49032E+00  8.49469E+00  8.50854E+00  8.50955E+00  8.50359E+00  8.51042E+00  8.50768E+00  8.46878E+00  8.40919E+00  8.36772E+00
   8.37110E+00  8.39132E+00  8.38031E+00  8.37095E+00  8.42437E+00  8.50458E+00  8.55304E+00  8.57315E+00  8.60059E+00  8.66655E+00
   8.77468E+00  8.94056E+00  9.17414E+00  9.15414E+00  9.07753E+00  9.16257E+00  9.00575E+00  8.28010E+00  7.30799E+00  6.74443E+00
   6.86122E+00  6.93382E+00  6.60988E+00  6.57580E+00  7.36043E+00  8.11689E+00  8.29172E+00  8.19509E+00  8.25560E+00  8.55304E+00
   8.61518E+00  8.21302E+00  7.89001E+00  7.72197E+00  7.61347E+00  7.53260E+00  7.46735E+00  7.41206E+00  7.36369E+00  7.32034E+00
   7.28075E+00  7.24411E+00  7.20998E+00  7.17819E+00  7.14863E+00  7.12118E+00  7.09572E+00  7.07223E+00  7.05082E+00  7.03167E+00
   7.01490E+00  7.00058E+00  6.98876E+00  6.97958E+00  6.97322E+00  6.96984E+00  6.96951E+00  6.97221E+00  6.97786E+00  6.98638E+00
   6.99764E+00  7.01136E+00  7.02710E+00  7.04428E+00  7.06220E+00  7.08015E+00  7.09731E+00  7.11277E+00  7.12554E+00  7.13461E+00
   7.13909E+00  7.13822E+00  7.13139E+00  7.11808E+00  7.09796E+00  7.07095E+00  7.03722E+00  6.99719E+00  6.95146E+00  6.90072E+00
   6.84581E+00  6.78765E+00  6.72725E+00  6.66561E+00  6.60364E+00  6.54213E+00  6.48177E+00  6.42316E+00  6.36679E+00  6.31302E+00
   6.26203E+00  6.21387E+00  6.16853E+00  6.12596E+00  6.08604E+00  6.04859E+00  6.01339E+00  5.98018E+00  5.94875E+00  5.91891E+00
   5.89049E+00  5.86328E+00  5.83708E+00  5.81174E+00  5.78713E+00  5.76318E+00  5.73978E+00  5.71685E+00  5.69427E+00  5.67199E+00
   5.64998E+00  5.62822E+00  5.60667E+00  5.58527E+00  5.56398E+00  5.54279E+00  5.52169E+00  5.50070E+00  5.47977E+00  5.45887E+00
   5.43798E+00  5.41711E+00  5.39629E+00  5.37549E+00  5.35469E+00  5.33387E+00  5.31304E+00  5.29220E+00  5.27138E+00  5.25056E+00
   5.22972E+00  5.20884E+00  5.18794E+00  5.16705E+00  5.14615E+00  5.12525E+00  5.10430E+00  5.08333E+00  5.06234E+00  5.04135E+00
   5.02037E+00  4.99936E+00  4.97831E+00  4.95725E+00  4.93618E+00  4.91512E+00  4.89405E+00  4.87295E+00  4.85183E+00  4.83070E+00
   4.80957E+00  4.78845E+00  4.76732E+00  4.74617E+00  4.72501E+00  4.70385E+00  4.68271E+00  4.66157E+00  4.64043E+00  4.61927E+00
   4.59812E+00  4.57698E+00  4.55587E+00  4.53477E+00  4.51367E+00  4.49258E+00  4.47151E+00  4.45047E+00
 NY background values follow
     2.716E+01    2.704E+01    2.691E+01    2.678E+01    2.665E+01    2.653E+01    2.640E+01    2.627E+01    2.614E+01    2.602E+01
     2.589E+01    2.576E+01    2.564E+01    2.551E+01    2.538E+01    2.526E+01    2.513E+01    2.500E+01    2.488E+01    2.475E+01
     2.462E+01    2.450E+01    2.437E+01    2.425E+01    2.412E+01    2.400E+01    2.387E+01    2.375E+01    2.362E+01    2.350E+01
     2.338E+01    2.325E+01    2.313E+01    2.301E+01    2.289E+01    2.276E+01    2.264E+01    2.252E+01    2.240E+01    2.228E+01
     2.216E+01    2.204E+01    2.192E+01    2.180E+01    2.168E+01    2.157E+01    2.145E+01    2.133E+01    2.122E+01    2.110E+01
     2.098E+01    2.087E+01    2.076E+01    2.064E+01    2.053E+01    2.042E+01    2.030E+01    2.019E+01    2.008E+01    1.997E+01
     1.986E+01    1.975E+01    1.964E+01    1.954E+01    1.943E+01    1.932E+01    1.922E+01    1.911E+01    1.901E+01    1.890E+01
     1.880E+01    1.870E+01    1.860E+01    1.850E+01    1.840E+01    1.830E+01    1.820E+01    1.810E+01    1.800E+01    1.791E+01
     1.781E+01    1.772E+01    1.763E+01    1.753E+01    1.744E+01    1.735E+01    1.726E+01    1.717E+01    1.709E+01    1.700E+01
     1.691E+01    1.683E+01    1.675E+01    1.666E+01    1.658E+01    1.650E+01    1.642E+01    1.634E+01    1.626E+01    1.618E+01
     1.611E+01    1.603E+01    1.596E+01    1.588E+01    1.581E+01    1.574E+01    1.567E+01    1.560E+01    1.553E+01    1.546E+01
     1.539E+01    1.533E+01    1.526E+01    1.519E+01    1.513E+01    1.507E+01    1.500E+01    1.494E+01    1.488E+01    1.482E+01
     1.476E+01    1.470E+01    1.464E+01    1.458E+01    1.453E+01    1.447E+01    1.441E+01    1.436E+01    1.430E+01    1.425E+01
     1.420E+01    1.414E+01    1.409E+01    1.404E+01    1.399E+01    1.394E+01    1.389E+01    1.384E+01    1.379E+01    1.375E+01
     1.370E+01    1.365E+01    1.361E+01    1.356E+01    1.352E+01    1.347E+01    1.343E+01    1.338E+01    1.334E+01    1.330E+01
     1.326E+01    1.321E+01    1.317E+01    1.313E+01    1.309E+01    1.305E+01    1.301E+01    1.297E+01    1.293E+01    1.289E+01
     1.286E+01    1.282E+01    1.278E+01    1.274E+01    1.270E+01    1.267E+01    1.263E+01    1.259E+01    1.256E+01    1.252E+01
     1.249E+01    1.245E+01    1.241E+01    1.238E+01    1.234E+01    1.231E+01    1.227E+01    1.224E+01    1.220E+01    1.217E+01
     1.213E+01    1.210E+01    1.207E+01    1.203E+01    1.200E+01    1.196E+01    1.193E+01    1.189E+01    1.186E+01    1.182E+01
     1.179E+01    1.176E+01    1.172E+01    1.169E+01    1.165E+01    1.162E+01    1.159E+01    1.155E+01    1.152E+01    1.149E+01
     1.145E+01    1.142E+01    1.139E+01    1.135E+01    1.132E+01    1.128E+01    1.125E+01    1.122E+01    1.118E+01    1.115E+01
     1.112E+01    1.109E+01    1.105E+01    1.102E+01    1.099E+01    1.095E+01    1.092E+01    1.089E+01    1.085E+01    1.082E+01
     1.079E+01    1.076E+01    1.072E+01    1.069E+01    1.066E+01    1.062E+01    1.059E+01    1.056E+01    1.053E+01    1.049E+01
     1.046E+01    1.043E+01    1.040E+01    1.037E+01    1.033E+01    1.030E+01    1.027E+01    1.024E+01    1.020E+01    1.017E+01
     1.014E+01    1.011E+01    1.008E+01    1.005E+01    1.001E+01    9.982E+00    9.951E+00    9.919E+00    9.888E+00    9.857E+00
     9.826E+00    9.795E+00    9.764E+00    9.733E+00    9.703E+00    9.672E+00    9.642E+00    9.612E+00    9.581E+00    9.551E+00
     9.521E+00    9.492E+00    9.462E+00    9.433E+00    9.403E+00    9.374E+00    9.345E+00    9.316E+00    9.287E+00    9.259E+00
     9.230E+00    9.202E+00    9.174E+00    9.146E+00    9.118E+00    9.090E+00    9.063E+00    9.035E+00    9.008E+00    8.981E+00
     8.954E+00    8.927E+00    8.901E+00    8.874E+00    8.848E+00    8.822E+00    8.795E+00    8.769E+00    8.744E+00    8.718E+00
     8.692E+00    8.667E+00    8.642E+00    8.617E+00    8.592E+00    8.567E+00    8.542E+00    8.517E+00    8.493E+00    8.468E+00
     8.444E+00    8.420E+00    8.395E+00    8.371E+00    8.347E+00    8.324E+00    8.300E+00    8.276E+00    8.253E+00    8.229E+00
     8.206E+00    8.183E+00    8.160E+00    8.137E+00    8.114E+00    8.091E+00    8.068E+00    8.045E+00    8.023E+00    8.000E+00
     7.978E+00    7.955E+00    7.933E+00    7.911E+00    7.889E+00    7.867E+00    7.845E+00    7.823E+00    7.801E+00    7.779E+00
     7.757E+00    7.736E+00    7.714E+00    7.693E+00    7.671E+00    7.650E+00    7.629E+00    7.608E+00    7.587E+00    7.565E+00
     7.545E+00    7.524E+00    7.503E+00    7.482E+00    7.461E+00    7.441E+00    7.420E+00    7.400E+00    7.379E+00    7.359E+00
     7.339E+00    7.319E+00    7.298E+00    7.278E+00    7.258E+00    7.239E+00    7.219E+00    7.199E+00    7.179E+00    7.159E+00
     7.140E+00    7.120E+00    7.101E+00    7.081E+00    7.062E+00    7.043E+00    7.023E+00    7.004E+00    6.985E+00    6.966E+00
     6.947E+00    6.928E+00    6.909E+00    6.890E+00    6.871E+00    6.852E+00    6.834E+00    6.815E+00    6.796E+00    6.777E+00
     6.759E+00    6.740E+00    6.722E+00    6.703E+00    6.684E+00    6.666E+00    6.647E+00    6.629E+00    6.610E+00    6.592E+00
     6.574E+00    6.555E+00    6.537E+00    6.518E+00    6.500E+00    6.482E+00    6.463E+00    6.445E+00    6.426E+00    6.408E+00
     6.390E+00    6.371E+00    6.353E+00    6.334E+00    6.316E+00    6.298E+00    6.279E+00    6.261E+00    6.242E+00    6.224E+00
     6.205E+00    6.187E+00    6.168E+00    6.150E+00    6.131E+00    6.112E+00    6.094E+00    6.075E+00    6.056E+00    6.038E+00
     6.019E+00    6.000E+00    5.981E+00    5.962E+00    5.944E+00    5.925E+00    5.906E+00    5.887E+00    5.868E+00    5.849E+00
     5.830E+00    5.811E+00    5.791E+00    5.772E+00    5.753E+00    5.734E+00    5.715E+00    5.695E+00    5.676E+00    5.656E+00
     5.637E+00    5.617E+00    5.598E+00    5.578E+00    5.559E+00    5.539E+00    5.519E+00    5.499E+00    5.480E+00    5.460E+00
     5.440E+00    5.420E+00    5.400E+00    5.380E+00    5.359E+00    5.339E+00    5.319E+00    5.299E+00    5.278E+00    5.258E+00
     5.237E+00    5.217E+00    5.196E+00    5.176E+00    5.155E+00    5.135E+00    5.114E+00    5.093E+00    5.072E+00    5.052E+00
     5.031E+00    5.010E+00    4.989E+00    4.968E+00    4.947E+00    4.926E+00    4.905E+00    4.884E+00    4.863E+00    4.842E+00
     4.821E+00    4.800E+00    4.779E+00    4.758E+00    4.737E+00    4.715E+00    4.694E+00    4.673E+00    4.652E+00    4.631E+00
     4.609E+00    4.588E+00    4.567E+00    4.546E+00    4.525E+00    4.503E+00    4.482E+00    4.461E+00
 Ala      Conc. = 9.03E+00
