 LCModel (Version 6.3-1L) Copyright: S.W. Provencher.          Ref.: Magn. Reson. Med. 30:672-679 (1993).                
 Slice#3 Row#11 Col#13  K_02_press_1_raw_act
 36 lines in following concentration table = NCONC+1
    Conc.  %SD /Cr+PCr  Metabolite                                         
 2.60E+03  32%  14.507 Ala                                                 
   30.009  88%   0.168 Asp                                                 
    0.000 999%   0.000 Cr                                                  
  179.155  31%   1.000 PCr                                                 
   19.211  84%   0.107 GABA                                                
   19.610  82%   0.109 Glc                                                 
 1.54E+03  28%   8.598 Gln                                                 
 3.22E+03  18%  17.966 Glu                                                 
   38.026  50%   0.212 GPC                                                 
    0.000 999%   0.000 PCh                                                 
    0.000 999%   0.000 GSH                                                 
  586.525  36%   3.274 Ins                                                 
  720.207 171%   4.020 Lac                                                 
    0.000 999%   0.000 NAA                                                 
  335.506  56%   1.873 NAAG                                                
    8.006  66% 4.5E-02 Scyllo                                              
   34.003  78%   0.190 Tau                                                 
    0.000 999%   0.000 -CrCH2                                              
   38.026  50%   0.212 GPC+PCh                                             
  335.506  29%   1.873 NAA+NAAG                                            
  179.155  31%   1.000 Cr+PCr                                              
 4.76E+03  17%  26.564 Glu+Gln                                             
 3.43E+03  49%  19.163 Lip13a                                              
 1.15E+03  92%   6.395 Lip13b                                              
 1.22E+03  25%   6.822 Lip09                                               
 2.89E+03  17%  16.118 MM09                                                
  686.860  25%   3.834 Lip20                                               
    0.000 999%   0.000 MM20                                                
 9.55E+03  12%  53.286+MM12                                                
 1.85E+04  10% 103.133 MM14                                                
 1.86E+03  18%  10.356 MM17                                                
 4.58E+03  25%  25.558 Lip13a+Lip13b                                       
 3.26E+04   4% 181.978 MM14+Lip13a+Lip13b+MM12                             
 4.11E+03  12%  22.940 MM09+Lip09                                          
  686.860  54%   3.834 MM20+Lip20                                          
   6 lines in following misc. output table
  FWHM = 0.168 ppm    S/N =  33                                            
  Data shift = 0.015 ppm                                                   
  Ph:  39 deg       6.5 deg/ppm                                            
  alphaB,S = 8.5E+01,   2.0E+02                                            
    6 spline knots.   Ns = 9(2)                                            
   2 inflections.     1 extrema                                            
  498 points on ppm-axis = NY
      4.000000     3.992357     3.984714     3.977070     3.969427     3.961784     3.954141     3.946497     3.938854     3.931211
      3.923568     3.915925     3.908281     3.900638     3.892995     3.885352     3.877708     3.870065     3.862422     3.854779
      3.847136     3.839492     3.831849     3.824206     3.816563     3.808919     3.801276     3.793633     3.785990     3.778347
      3.770703     3.763060     3.755417     3.747774     3.740130     3.732487     3.724844     3.717201     3.709558     3.701914
      3.694271     3.686628     3.678985     3.671341     3.663698     3.656055     3.648412     3.640769     3.633125     3.625482
      3.617839     3.610196     3.602552     3.594909     3.587266     3.579623     3.571980     3.564336     3.556693     3.549050
      3.541407     3.533763     3.526120     3.518477     3.510834     3.503191     3.495547     3.487904     3.480261     3.472618
      3.464974     3.457331     3.449688     3.442045     3.434402     3.426758     3.419115     3.411472     3.403829     3.396185
      3.388542     3.380899     3.373256     3.365613     3.357969     3.350326     3.342683     3.335040     3.327396     3.319753
      3.312110     3.304467     3.296824     3.289180     3.281537     3.273894     3.266251     3.258607     3.250964     3.243321
      3.235678     3.228034     3.220391     3.212748     3.205105     3.197462     3.189818     3.182175     3.174532     3.166889
      3.159245     3.151602     3.143959     3.136316     3.128673     3.121029     3.113386     3.105743     3.098100     3.090456
      3.082813     3.075170     3.067527     3.059884     3.052240     3.044597     3.036954     3.029311     3.021667     3.014024
      3.006381     2.998738     2.991095     2.983451     2.975808     2.968165     2.960522     2.952878     2.945235     2.937592
      2.929949     2.922306     2.914662     2.907019     2.899376     2.891733     2.884089     2.876446     2.868803     2.861160
      2.853517     2.845873     2.838230     2.830587     2.822944     2.815300     2.807657     2.800014     2.792371     2.784728
      2.777084     2.769441     2.761798     2.754155     2.746511     2.738868     2.731225     2.723582     2.715939     2.708295
      2.700652     2.693009     2.685366     2.677722     2.670079     2.662436     2.654793     2.647150     2.639506     2.631863
      2.624220     2.616577     2.608933     2.601290     2.593647     2.586004     2.578361     2.570717     2.563074     2.555431
      2.547788     2.540144     2.532501     2.524858     2.517215     2.509572     2.501928     2.494285     2.486642     2.478999
      2.471355     2.463712     2.456069     2.448426     2.440783     2.433139     2.425496     2.417853     2.410210     2.402566
      2.394923     2.387280     2.379637     2.371994     2.364350     2.356707     2.349064     2.341421     2.333777     2.326134
      2.318491     2.310848     2.303205     2.295561     2.287918     2.280275     2.272632     2.264988     2.257345     2.249702
      2.242059     2.234416     2.226772     2.219129     2.211486     2.203843     2.196199     2.188556     2.180913     2.173270
      2.165627     2.157983     2.150340     2.142697     2.135054     2.127410     2.119767     2.112124     2.104481     2.096838
      2.089194     2.081551     2.073908     2.066265     2.058621     2.050978     2.043335     2.035692     2.028049     2.020405
      2.012762     2.005119     1.997476     1.989833     1.982190     1.974546     1.966903     1.959260     1.951617     1.943974
      1.936331     1.928688     1.921045     1.913402     1.905759     1.898115     1.890472     1.882829     1.875186     1.867543
      1.859900     1.852257     1.844614     1.836971     1.829327     1.821684     1.814041     1.806398     1.798755     1.791112
      1.783469     1.775826     1.768183     1.760540     1.752896     1.745253     1.737610     1.729967     1.722324     1.714681
      1.707038     1.699395     1.691752     1.684108     1.676465     1.668822     1.661179     1.653536     1.645893     1.638250
      1.630607     1.622964     1.615321     1.607677     1.600034     1.592391     1.584748     1.577105     1.569462     1.561819
      1.554176     1.546533     1.538890     1.531246     1.523603     1.515960     1.508317     1.500674     1.493031     1.485388
      1.477745     1.470102     1.462458     1.454815     1.447172     1.439529     1.431886     1.424243     1.416600     1.408957
      1.401314     1.393671     1.386027     1.378384     1.370741     1.363098     1.355455     1.347812     1.340169     1.332526
      1.324883     1.317240     1.309596     1.301953     1.294310     1.286667     1.279024     1.271381     1.263738     1.256095
      1.248452     1.240808     1.233165     1.225522     1.217879     1.210236     1.202593     1.194950     1.187307     1.179664
      1.172021     1.164377     1.156734     1.149091     1.141448     1.133805     1.126162     1.118519     1.110876     1.103233
      1.095590     1.087946     1.080303     1.072660     1.065017     1.057374     1.049731     1.042088     1.034445     1.026802
      1.019158     1.011515     1.003872     0.996229     0.988586     0.980943     0.973300     0.965657     0.958014     0.950371
      0.942727     0.935084     0.927441     0.919798     0.912155     0.904512     0.896869     0.889226     0.881583     0.873940
      0.866296     0.858653     0.851010     0.843367     0.835724     0.828081     0.820438     0.812795     0.805152     0.797508
      0.789865     0.782222     0.774579     0.766936     0.759293     0.751650     0.744007     0.736364     0.728721     0.721077
      0.713434     0.705791     0.698148     0.690505     0.682862     0.675219     0.667576     0.659933     0.652290     0.644646
      0.637003     0.629360     0.621717     0.614074     0.606431     0.598788     0.591145     0.583502     0.575858     0.568215
      0.560572     0.552929     0.545286     0.537643     0.530000     0.522357     0.514714     0.507071     0.499427     0.491784
      0.484141     0.476498     0.468855     0.461212     0.453569     0.445925     0.438282     0.430639     0.422996     0.415353
      0.407710     0.400067     0.392424     0.384780     0.377137     0.369494     0.361851     0.354208     0.346565     0.338922
      0.331278     0.323635     0.315992     0.308349     0.300706     0.293063     0.285420     0.277777     0.270133     0.262490
      0.254847     0.247204     0.239561     0.231918     0.224275     0.216631     0.208988     0.201345
 NY phased data points follow
   1.31088E+01  1.07215E+01  1.02921E+01  9.96741E+00  1.15120E+01  1.04306E+01  7.04939E+00  9.31536E+00  1.19029E+01  1.20755E+01
   9.67698E+00  9.99785E+00  1.19186E+01  1.29149E+01  9.97399E+00  9.70248E+00  9.33530E+00  8.08103E+00  7.00733E+00  8.79925E+00
   8.31900E+00  9.27530E+00  8.42288E+00  7.26865E+00  9.60968E+00  8.82118E+00  7.94861E+00  7.57821E+00  9.23588E+00  7.92257E+00
   9.50981E+00  8.10629E+00  6.72130E+00  8.63677E+00  9.11946E+00  7.93744E+00  6.78010E+00  7.99051E+00  6.43220E+00  6.29705E+00
   5.39720E+00  7.52032E+00  8.72657E+00  6.01253E+00  8.34217E+00  7.70734E+00  8.38097E+00  7.77253E+00  6.65965E+00  8.10134E+00
   5.03813E+00  6.05336E+00  5.57177E+00  6.59593E+00  4.33239E+00  6.99535E+00  7.78871E+00  6.47306E+00  8.24962E+00  5.55155E+00
   3.97438E+00  5.27337E+00  5.61147E+00  6.49742E+00  6.24809E+00  4.97076E+00  4.91780E+00  5.42491E+00  7.85653E+00  5.44700E+00
   5.86220E+00  6.19240E+00  5.40660E+00  5.06348E+00  6.88649E+00  4.55309E+00  6.41908E+00  6.98754E+00  5.02819E+00  5.83106E+00
   4.77461E+00  4.86419E+00  3.76194E+00  4.65411E+00  2.30025E+00  5.67902E+00  6.21402E+00  3.66397E+00  3.21530E+00  6.00164E+00
   3.21150E+00  4.53946E+00  4.87400E+00  3.27658E+00  4.33560E+00  3.51578E+00  2.76569E+00  3.72849E+00  3.10831E+00  3.09788E+00
   3.18899E+00  4.13498E+00  7.40490E+00  7.59295E+00  6.56176E+00  4.19395E+00  2.27978E+00  2.11930E+00  3.26688E+00  2.23826E+00
   3.03046E+00  3.70521E+00  2.46823E+00  3.91501E+00  4.28818E+00  1.83617E+00  1.23986E+00  3.81336E+00  5.08015E+00  2.82162E+00
   3.51106E+00  3.67776E+00  2.43140E+00  3.15671E+00  2.46133E+00  4.71101E+00  5.35617E+00  5.80518E+00  5.67467E+00  4.23101E+00
   4.44701E+00  3.98687E+00  9.41594E-01  1.30787E+00 -4.83426E-01  2.41661E+00  1.91975E+00  1.36773E+00  1.07994E+00  4.07957E+00
   3.86503E+00  2.47257E+00  3.71447E+00  4.35263E+00  3.97424E+00  3.51134E+00  1.77488E+00  1.89574E+00  2.79598E+00  2.31005E+00
   2.96311E+00  1.11262E+00  4.20042E+00  7.87105E-01  7.72408E-01  4.21321E+00  3.18072E+00  2.58076E+00  9.42808E-01  1.96379E+00
   2.20035E+00  3.77035E+00  2.19383E+00  2.03942E+00  8.68875E-01  2.72919E+00  3.81880E+00  1.58169E+00  1.00963E+00  1.80025E+00
   1.64346E+00  2.62971E+00  3.07090E+00  1.36540E+00  3.19114E+00 -3.43736E-01  1.91326E+00  3.00299E+00 -2.81553E-01  1.10418E+00
   3.04409E+00  7.29734E-01  7.32938E-01  3.86478E+00 -4.44963E-01  1.21255E+00 -9.98297E-01  9.31145E-01  2.48018E+00  1.92583E+00
   1.57822E+00  5.47217E-01  3.45903E+00  6.58830E-01 -3.48336E-02  9.75139E-01 -1.32912E+00 -4.21761E-01 -5.18383E-01  8.28320E-01
   5.63275E-01  2.05101E-01  3.45167E-01  1.26322E+00 -3.55116E-01  5.28267E-01  2.41008E+00  3.70860E+00  3.80328E-01  1.97705E+00
  -5.87480E-01  7.12469E-01  4.28291E-01  2.00429E+00  2.21928E+00  1.18757E+00  1.62352E+00  1.17171E+00 -8.73253E-01  6.41327E-01
   4.94221E-01  1.30783E+00  2.19458E+00  7.28217E-01 -4.25860E-01  6.06149E-01  1.91397E+00  3.26950E+00  1.16201E+00  3.34038E+00
   1.00475E+00  4.21913E-01  2.07578E+00  2.61495E+00  3.95222E+00  2.62000E+00  4.33574E+00  2.22444E+00  5.86841E+00  6.73808E+00
   3.98232E+00  4.10705E+00  5.69487E+00  5.14116E+00  5.65994E+00  4.36883E+00  4.83782E+00  5.28159E+00  6.36172E+00  5.32257E+00
   7.61862E+00  8.55377E+00  8.33807E+00  7.75859E+00  8.71639E+00  8.98130E+00  1.00031E+01  6.65984E+00  6.39300E+00  1.05894E+01
   1.26979E+01  1.08138E+01  9.13777E+00  8.52282E+00  5.33233E+00  6.17787E+00  5.88244E+00  7.95517E+00  8.24567E+00  7.61645E+00
   8.61654E+00  7.87801E+00  1.01710E+01  1.03358E+01  9.88196E+00  1.04872E+01  7.79572E+00  1.03793E+01  9.43530E+00  1.06656E+01
   1.08876E+01  1.23062E+01  9.11404E+00  1.05241E+01  1.30238E+01  1.19659E+01  9.15075E+00  1.04247E+01  1.16620E+01  1.12856E+01
   1.30790E+01  1.06680E+01  1.18095E+01  1.09305E+01  1.29736E+01  1.08832E+01  1.35643E+01  1.34049E+01  1.07867E+01  1.24287E+01
   1.17324E+01  1.48478E+01  1.24002E+01  1.32455E+01  1.32105E+01  1.45203E+01  1.52066E+01  1.57484E+01  1.71226E+01  1.80627E+01
   1.63990E+01  1.87968E+01  1.73676E+01  1.94504E+01  1.94187E+01  2.02569E+01  2.12301E+01  2.39637E+01  2.21312E+01  2.61860E+01
   2.70392E+01  2.78113E+01  3.28458E+01  3.32217E+01  3.68326E+01  3.80699E+01  4.20624E+01  4.56162E+01  5.02672E+01  5.24632E+01
   5.63090E+01  5.93330E+01  6.52967E+01  6.95068E+01  7.50034E+01  7.87986E+01  8.21137E+01  8.63301E+01  9.02145E+01  9.51473E+01
   9.72029E+01  1.00919E+02  1.03375E+02  1.07028E+02  1.08374E+02  1.10412E+02  1.11952E+02  1.14214E+02  1.13635E+02  1.12476E+02
   1.13653E+02  1.13016E+02  1.12978E+02  1.14012E+02  1.12666E+02  1.13149E+02  1.11668E+02  1.10408E+02  1.07592E+02  1.07086E+02
   1.04136E+02  1.01233E+02  9.93549E+01  9.91485E+01  9.46307E+01  9.24499E+01  9.25926E+01  8.80859E+01  8.57502E+01  8.28012E+01
   8.14771E+01  7.92717E+01  7.80212E+01  7.56870E+01  7.27093E+01  7.13200E+01  6.91083E+01  6.53100E+01  6.23198E+01  6.13438E+01
   5.79680E+01  5.56335E+01  5.29985E+01  5.25372E+01  5.26100E+01  4.64325E+01  4.50423E+01  4.32753E+01  4.06678E+01  3.89051E+01
   3.74328E+01  3.68278E+01  3.61740E+01  3.34532E+01  3.23643E+01  2.76114E+01  2.70897E+01  2.79556E+01  2.48190E+01  2.61543E+01
   2.31741E+01  2.17019E+01  2.04220E+01  1.98564E+01  1.86528E+01  1.74412E+01  1.85177E+01  1.68580E+01  1.77881E+01  1.29003E+01
   1.34539E+01  1.07574E+01  1.16310E+01  1.10715E+01  1.17824E+01  1.04054E+01  9.52182E+00  6.86772E+00  5.04911E+00  4.62328E+00
   6.63679E+00  4.46842E+00  6.49343E+00  5.39515E+00  2.36033E+00  2.66189E+00  2.12524E+00  3.64622E+00  2.90044E+00  1.61153E+00
   1.53554E+00  2.12232E+00  2.30608E+00  1.55825E+00  1.07113E+00 -5.13369E-01  5.14138E-01 -7.16115E-01 -1.72968E+00 -2.60654E+00
  -2.01873E+00 -1.52739E+00 -6.73566E-01 -1.33946E+00 -2.30188E+00 -1.71400E+00 -4.72447E-01 -4.17003E-01 -2.44145E+00 -1.35193E+00
  -3.02173E+00 -3.10227E+00 -1.05415E+00 -2.85608E+00 -3.47129E+00 -3.25888E+00 -9.44779E-01 -4.39970E+00 -2.23328E+00 -3.53731E+00
  -7.04909E-01 -4.05334E+00 -5.04897E+00 -2.63167E+00 -4.46562E+00 -3.62538E+00 -4.55144E+00 -2.83990E+00 -3.02245E+00 -2.54106E+00
  -4.04431E+00 -2.66155E+00 -3.02645E+00 -4.82279E+00 -3.64135E+00 -3.94156E+00 -4.58188E+00 -2.41254E+00 -2.79117E+00 -5.38522E+00
  -4.82695E+00 -3.99660E+00 -3.19725E+00 -5.00289E+00 -5.11830E+00 -2.89547E+00 -3.97210E+00 -3.64277E+00 -2.76606E+00 -1.89251E+00
  -4.65854E+00 -5.16765E+00 -4.62360E+00 -5.00597E+00 -2.42957E+00 -3.78830E+00 -3.44984E+00 -4.73810E+00
 NY points of the fit to the data follow
   8.50816E+00  8.83073E+00  8.46226E+00  8.77709E+00  8.42632E+00  8.79358E+00  8.54496E+00  9.07541E+00  8.77750E+00  9.31067E+00
   8.77726E+00  9.26332E+00  8.47242E+00  8.96059E+00  8.09636E+00  8.80334E+00  8.04488E+00  8.89444E+00  8.15992E+00  9.02475E+00
   8.23681E+00  9.07682E+00  8.24649E+00  8.98570E+00  8.14063E+00  8.76638E+00  7.98338E+00  8.51571E+00  7.92601E+00  8.43692E+00
   8.13391E+00  8.57166E+00  8.43993E+00  8.67568E+00  8.61411E+00  8.60667E+00  8.61898E+00  8.43839E+00  8.59765E+00  8.33146E+00
   8.63269E+00  8.33348E+00  8.70212E+00  8.34779E+00  8.66047E+00  8.23372E+00  8.43957E+00  7.97947E+00  8.06981E+00  7.60056E+00
   7.63228E+00  7.22619E+00  7.25458E+00  6.93212E+00  6.98744E+00  6.74466E+00  6.79394E+00  6.55200E+00  6.54802E+00  6.28838E+00
   6.25665E+00  6.00771E+00  5.99279E+00  5.76854E+00  5.78571E+00  5.59616E+00  5.64075E+00  5.47875E+00  5.54518E+00  5.38530E+00
   5.44501E+00  5.25894E+00  5.28977E+00  5.08036E+00  5.08985E+00  4.87357E+00  4.87555E+00  4.66430E+00  4.66922E+00  4.46825E+00
   4.46721E+00  4.27480E+00  4.26245E+00  4.08024E+00  4.07971E+00  3.96947E+00  3.95160E+00  3.90963E+00  3.86917E+00  3.90005E+00
   3.83470E+00  3.93097E+00  3.83492E+00  3.98403E+00  3.85331E+00  4.04419E+00  3.87499E+00  4.10173E+00  3.89965E+00  4.15638E+00
   3.92184E+00  4.18783E+00  3.92162E+00  4.16914E+00  3.87750E+00  4.08185E+00  3.78340E+00  3.94639E+00  3.70722E+00  3.92889E+00
   3.71547E+00  3.97184E+00  3.76539E+00  4.04785E+00  3.83477E+00  4.13359E+00  3.90762E+00  4.22419E+00  3.98472E+00  4.32781E+00
   4.06999E+00  4.44624E+00  4.16528E+00  4.57372E+00  4.25831E+00  4.67822E+00  4.31036E+00  4.69319E+00  4.28254E+00  4.59950E+00
   4.17151E+00  4.41825E+00  3.99851E+00  4.17791E+00  3.78326E+00  3.89320E+00  3.52908E+00  3.56274E+00  3.24901E+00  3.22040E+00
   2.97911E+00  2.91817E+00  2.75409E+00  2.69234E+00  2.59734E+00  2.55433E+00  2.50678E+00  2.48640E+00  2.46817E+00  2.47607E+00
   2.45324E+00  2.45593E+00  2.41758E+00  2.41754E+00  2.36933E+00  2.36643E+00  2.30766E+00  2.29603E+00  2.22333E+00  2.20521E+00
   2.11978E+00  2.09578E+00  2.00059E+00  1.97078E+00  1.86621E+00  1.83076E+00  1.73185E+00  1.69613E+00  1.60805E+00  1.57341E+00
   1.50189E+00  1.46780E+00  1.41633E+00  1.38538E+00  1.35873E+00  1.32053E+00  1.28695E+00  1.24296E+00  1.16476E+00  1.11472E+00
   9.99572E-01  9.62831E-01  8.34844E-01  8.78285E-01  7.97028E-01  9.36128E-01  8.93393E-01  1.17109E+00  1.14594E+00  1.47136E+00
   1.36560E+00  1.62097E+00  1.18389E+00  1.48232E+00  8.21276E-01  1.25267E+00  5.07142E-01  1.23026E+00  7.24169E-01  1.64030E+00
   1.24037E+00  2.19795E+00  1.79111E+00  2.57106E+00  1.88605E+00  2.35038E+00  1.56074E+00  1.92149E+00  1.15049E+00  1.53840E+00
   9.24160E-01  1.38282E+00  9.72262E-01  1.39931E+00  1.08529E+00  1.42038E+00  1.11573E+00  1.33122E+00  9.54442E-01  1.20486E+00
   9.07493E-01  1.33675E+00  1.16451E+00  1.80631E+00  1.63624E+00  2.26126E+00  2.00237E+00  2.55396E+00  2.18570E+00  2.63281E+00
   2.29017E+00  2.68019E+00  2.44573E+00  2.81917E+00  2.80244E+00  3.12328E+00  3.30942E+00  3.54445E+00  4.04614E+00  3.99978E+00
   4.60003E+00  4.24021E+00  4.99985E+00  4.44753E+00  5.37598E+00  4.75575E+00  5.92009E+00  5.30868E+00  6.59325E+00  6.01124E+00
   7.32393E+00  6.77087E+00  8.02311E+00  7.50331E+00  8.57872E+00  8.12195E+00  8.97305E+00  8.59466E+00  9.17301E+00  8.88609E+00
   9.23468E+00  9.01717E+00  9.15003E+00  8.95656E+00  8.89152E+00  8.68855E+00  8.48058E+00  8.32417E+00  8.04318E+00  7.97922E+00
   7.71670E+00  7.77898E+00  7.59603E+00  7.78108E+00  7.71842E+00  8.00624E+00  8.07523E+00  8.43051E+00  8.64313E+00  9.01155E+00
   9.30447E+00  9.66561E+00  1.00335E+01  1.03824E+01  1.07784E+01  1.10907E+01  1.14712E+01  1.17261E+01  1.20478E+01  1.22425E+01
   1.24910E+01  1.26196E+01  1.27899E+01  1.28550E+01  1.29509E+01  1.29651E+01  1.30057E+01  1.29864E+01  1.29933E+01  1.29666E+01
   1.29753E+01  1.29802E+01  1.30352E+01  1.31185E+01  1.32773E+01  1.35055E+01  1.38534E+01  1.43515E+01  1.51292E+01  1.62676E+01
   1.70098E+01  1.82754E+01  1.88661E+01  2.01357E+01  2.04995E+01  2.16113E+01  2.16806E+01  2.31960E+01  2.36911E+01  2.56203E+01
   2.67058E+01  2.90585E+01  3.08450E+01  3.35713E+01  3.60227E+01  3.89832E+01  4.20842E+01  4.52091E+01  4.90400E+01  5.24278E+01
   5.68935E+01  6.04938E+01  6.55377E+01  6.92081E+01  7.45613E+01  7.79734E+01  8.32809E+01  8.63592E+01  9.13208E+01  9.39813E+01
   9.83485E+01  1.00609E+02  1.04199E+02  1.06050E+02  1.08670E+02  1.10018E+02  1.11561E+02  1.12451E+02  1.13054E+02  1.13712E+02
   1.13552E+02  1.14079E+02  1.13455E+02  1.13881E+02  1.12797E+02  1.12806E+02  1.11092E+02  1.10436E+02  1.08156E+02  1.06714E+02
   1.03994E+02  1.02072E+02  9.92952E+01  9.72879E+01  9.47494E+01  9.28388E+01  9.05863E+01  8.87207E+01  8.66102E+01  8.46384E+01
   8.24440E+01  8.02203E+01  7.78537E+01  7.53946E+01  7.28627E+01  7.02545E+01  6.76477E+01  6.50539E+01  6.24949E+01  5.99955E+01
   5.75770E+01  5.52553E+01  5.30394E+01  5.09318E+01  4.89287E+01  4.70213E+01  4.51973E+01  4.34422E+01  4.17416E+01  4.00817E+01
   3.84515E+01  3.68428E+01  3.52512E+01  3.36755E+01  3.21181E+01  3.05837E+01  2.90790E+01  2.76114E+01  2.61886E+01  2.48171E+01
   2.35024E+01  2.22479E+01  2.10550E+01  1.99231E+01  1.88496E+01  1.78305E+01  1.68606E+01  1.59342E+01  1.50451E+01  1.41880E+01
   1.33576E+01  1.25499E+01  1.17620E+01  1.09918E+01  1.02386E+01  9.50241E+00  8.78428E+00  8.08565E+00  7.40842E+00  6.75459E+00
   6.12615E+00  5.52488E+00  4.95224E+00  4.40930E+00  3.89668E+00  3.41455E+00  2.96263E+00  2.54027E+00  2.14649E+00  1.78005E+00
   1.43950E+00  1.12324E+00  8.29625E-01  5.56967E-01  3.03595E-01  6.79125E-02 -1.51634E-01 -3.56469E-01 -5.47960E-01 -7.27310E-01
  -8.95670E-01 -1.05403E+00 -1.20334E+00 -1.34440E+00 -1.47798E+00 -1.60471E+00 -1.72523E+00 -1.84001E+00 -1.94959E+00 -2.05434E+00
  -2.15469E+00 -2.25094E+00 -2.34343E+00 -2.43241E+00 -2.51816E+00 -2.60088E+00 -2.68081E+00 -2.75810E+00 -2.83294E+00 -2.90548E+00
  -2.97588E+00 -3.04425E+00 -3.11072E+00 -3.17539E+00 -3.23838E+00 -3.29977E+00 -3.35966E+00 -3.41811E+00 -3.47522E+00 -3.53103E+00
  -3.58563E+00 -3.63907E+00 -3.69141E+00 -3.74270E+00 -3.79299E+00 -3.84232E+00 -3.89074E+00 -3.93828E+00 -3.98499E+00 -4.03091E+00
  -4.07605E+00 -4.12045E+00 -4.16415E+00 -4.20717E+00 -4.24954E+00 -4.29126E+00 -4.33238E+00 -4.37290E+00 -4.41284E+00 -4.45222E+00
  -4.49106E+00 -4.52935E+00 -4.56711E+00 -4.60434E+00 -4.64104E+00 -4.67719E+00 -4.71277E+00 -4.74775E+00
 NY background values follow
     5.460E+00    5.434E+00    5.409E+00    5.383E+00    5.358E+00    5.332E+00    5.307E+00    5.281E+00    5.256E+00    5.230E+00
     5.205E+00    5.179E+00    5.154E+00    5.128E+00    5.103E+00    5.077E+00    5.052E+00    5.026E+00    5.001E+00    4.975E+00
     4.950E+00    4.924E+00    4.899E+00    4.873E+00    4.848E+00    4.823E+00    4.797E+00    4.772E+00    4.746E+00    4.721E+00
     4.695E+00    4.670E+00    4.645E+00    4.619E+00    4.594E+00    4.569E+00    4.543E+00    4.518E+00    4.492E+00    4.467E+00
     4.442E+00    4.416E+00    4.391E+00    4.366E+00    4.340E+00    4.315E+00    4.290E+00    4.265E+00    4.239E+00    4.214E+00
     4.189E+00    4.163E+00    4.138E+00    4.113E+00    4.088E+00    4.063E+00    4.037E+00    4.012E+00    3.987E+00    3.962E+00
     3.937E+00    3.911E+00    3.886E+00    3.861E+00    3.836E+00    3.811E+00    3.786E+00    3.761E+00    3.735E+00    3.710E+00
     3.685E+00    3.660E+00    3.635E+00    3.610E+00    3.585E+00    3.560E+00    3.535E+00    3.510E+00    3.485E+00    3.460E+00
     3.435E+00    3.410E+00    3.385E+00    3.360E+00    3.335E+00    3.310E+00    3.285E+00    3.260E+00    3.236E+00    3.211E+00
     3.186E+00    3.161E+00    3.136E+00    3.111E+00    3.087E+00    3.062E+00    3.037E+00    3.012E+00    2.987E+00    2.963E+00
     2.938E+00    2.913E+00    2.889E+00    2.864E+00    2.839E+00    2.815E+00    2.790E+00    2.765E+00    2.741E+00    2.716E+00
     2.691E+00    2.667E+00    2.642E+00    2.618E+00    2.593E+00    2.569E+00    2.544E+00    2.520E+00    2.495E+00    2.471E+00
     2.446E+00    2.422E+00    2.398E+00    2.373E+00    2.349E+00    2.324E+00    2.300E+00    2.276E+00    2.251E+00    2.227E+00
     2.203E+00    2.179E+00    2.154E+00    2.130E+00    2.106E+00    2.082E+00    2.057E+00    2.033E+00    2.009E+00    1.985E+00
     1.961E+00    1.937E+00    1.913E+00    1.889E+00    1.865E+00    1.841E+00    1.817E+00    1.793E+00    1.769E+00    1.745E+00
     1.721E+00    1.697E+00    1.673E+00    1.649E+00    1.625E+00    1.601E+00    1.578E+00    1.554E+00    1.530E+00    1.506E+00
     1.483E+00    1.459E+00    1.435E+00    1.412E+00    1.388E+00    1.364E+00    1.341E+00    1.317E+00    1.293E+00    1.270E+00
     1.246E+00    1.223E+00    1.199E+00    1.176E+00    1.152E+00    1.129E+00    1.106E+00    1.082E+00    1.059E+00    1.035E+00
     1.012E+00    9.888E-01    9.655E-01    9.422E-01    9.190E-01    8.957E-01    8.725E-01    8.493E-01    8.261E-01    8.030E-01
     7.798E-01    7.567E-01    7.336E-01    7.105E-01    6.874E-01    6.644E-01    6.413E-01    6.183E-01    5.953E-01    5.724E-01
     5.494E-01    5.264E-01    5.035E-01    4.806E-01    4.577E-01    4.349E-01    4.120E-01    3.892E-01    3.663E-01    3.435E-01
     3.207E-01    2.980E-01    2.752E-01    2.525E-01    2.298E-01    2.071E-01    1.844E-01    1.617E-01    1.391E-01    1.164E-01
     9.383E-02    7.123E-02    4.864E-02    2.608E-02    3.526E-03   -1.901E-02   -4.153E-02   -6.403E-02   -8.652E-02   -1.090E-01
    -1.314E-01   -1.539E-01   -1.763E-01   -1.987E-01   -2.211E-01   -2.435E-01   -2.658E-01   -2.882E-01   -3.105E-01   -3.328E-01
    -3.551E-01   -3.774E-01   -3.997E-01   -4.220E-01   -4.442E-01   -4.664E-01   -4.886E-01   -5.108E-01   -5.330E-01   -5.552E-01
    -5.773E-01   -5.995E-01   -6.216E-01   -6.437E-01   -6.658E-01   -6.879E-01   -7.100E-01   -7.320E-01   -7.541E-01   -7.761E-01
    -7.981E-01   -8.201E-01   -8.421E-01   -8.641E-01   -8.860E-01   -9.080E-01   -9.299E-01   -9.518E-01   -9.737E-01   -9.956E-01
    -1.018E+00   -1.039E+00   -1.061E+00   -1.083E+00   -1.105E+00   -1.127E+00   -1.149E+00   -1.170E+00   -1.192E+00   -1.214E+00
    -1.236E+00   -1.257E+00   -1.279E+00   -1.301E+00   -1.323E+00   -1.344E+00   -1.366E+00   -1.388E+00   -1.409E+00   -1.431E+00
    -1.453E+00   -1.474E+00   -1.496E+00   -1.517E+00   -1.539E+00   -1.561E+00   -1.582E+00   -1.604E+00   -1.625E+00   -1.647E+00
    -1.668E+00   -1.690E+00   -1.711E+00   -1.733E+00   -1.754E+00   -1.776E+00   -1.797E+00   -1.819E+00   -1.840E+00   -1.862E+00
    -1.883E+00   -1.904E+00   -1.926E+00   -1.947E+00   -1.969E+00   -1.990E+00   -2.011E+00   -2.033E+00   -2.054E+00   -2.075E+00
    -2.097E+00   -2.118E+00   -2.139E+00   -2.161E+00   -2.182E+00   -2.203E+00   -2.225E+00   -2.246E+00   -2.267E+00   -2.288E+00
    -2.310E+00   -2.331E+00   -2.352E+00   -2.373E+00   -2.394E+00   -2.416E+00   -2.437E+00   -2.458E+00   -2.479E+00   -2.500E+00
    -2.522E+00   -2.543E+00   -2.564E+00   -2.585E+00   -2.606E+00   -2.627E+00   -2.648E+00   -2.669E+00   -2.691E+00   -2.712E+00
    -2.733E+00   -2.754E+00   -2.775E+00   -2.796E+00   -2.817E+00   -2.838E+00   -2.859E+00   -2.880E+00   -2.901E+00   -2.922E+00
    -2.943E+00   -2.964E+00   -2.985E+00   -3.006E+00   -3.027E+00   -3.048E+00   -3.069E+00   -3.090E+00   -3.111E+00   -3.132E+00
    -3.153E+00   -3.174E+00   -3.195E+00   -3.216E+00   -3.236E+00   -3.257E+00   -3.278E+00   -3.299E+00   -3.320E+00   -3.341E+00
    -3.362E+00   -3.383E+00   -3.404E+00   -3.424E+00   -3.445E+00   -3.466E+00   -3.487E+00   -3.508E+00   -3.529E+00   -3.549E+00
    -3.570E+00   -3.591E+00   -3.612E+00   -3.633E+00   -3.653E+00   -3.674E+00   -3.695E+00   -3.716E+00   -3.737E+00   -3.757E+00
    -3.778E+00   -3.799E+00   -3.820E+00   -3.840E+00   -3.861E+00   -3.882E+00   -3.903E+00   -3.923E+00   -3.944E+00   -3.965E+00
    -3.985E+00   -4.006E+00   -4.027E+00   -4.048E+00   -4.068E+00   -4.089E+00   -4.110E+00   -4.130E+00   -4.151E+00   -4.172E+00
    -4.192E+00   -4.213E+00   -4.234E+00   -4.254E+00   -4.275E+00   -4.296E+00   -4.316E+00   -4.337E+00   -4.358E+00   -4.378E+00
    -4.399E+00   -4.419E+00   -4.440E+00   -4.461E+00   -4.481E+00   -4.502E+00   -4.523E+00   -4.543E+00   -4.564E+00   -4.584E+00
    -4.605E+00   -4.626E+00   -4.646E+00   -4.667E+00   -4.687E+00   -4.708E+00   -4.728E+00   -4.749E+00   -4.770E+00   -4.790E+00
    -4.811E+00   -4.831E+00   -4.852E+00   -4.872E+00   -4.893E+00   -4.913E+00   -4.934E+00   -4.955E+00   -4.975E+00   -4.996E+00
    -5.016E+00   -5.037E+00   -5.057E+00   -5.078E+00   -5.098E+00   -5.119E+00   -5.139E+00   -5.160E+00   -5.180E+00   -5.201E+00
    -5.221E+00   -5.242E+00   -5.262E+00   -5.283E+00   -5.303E+00   -5.324E+00   -5.344E+00   -5.365E+00   -5.385E+00   -5.406E+00
    -5.426E+00   -5.447E+00   -5.467E+00   -5.488E+00   -5.508E+00   -5.529E+00   -5.549E+00   -5.570E+00   -5.590E+00   -5.611E+00
    -5.631E+00   -5.652E+00   -5.672E+00   -5.693E+00   -5.713E+00   -5.734E+00   -5.754E+00   -5.775E+00
 Ala      Conc. = 2.60E+03
