 LCModel (Version 6.3-1L) Copyright: S.W. Provencher.          Ref.: Magn. Reson. Med. 30:672-679 (1993).                
 Slice#2 Row#1 Col#8  K_02_press_1_raw_act
 36 lines in following concentration table = NCONC+1
    Conc.  %SD /Cr+PCr  Metabolite                                         
    0.000 999%   0.000 Ala                                                 
    0.000 999%   0.000 Asp                                                 
    0.000 999%   0.000 Cr                                                  
    0.000 999%   0.000 PCr                                                 
    0.000 999%   0.000 GABA                                                
    0.000 999%   0.000 Glc                                                 
  220.005  88%   0.000 Gln                                                 
    0.000 999%   0.000 Glu                                                 
    0.000 999%   0.000 GPC                                                 
    0.000 999%   0.000 PCh                                                 
    0.000 999%   0.000 GSH                                                 
  480.952  40%   0.000 Ins                                                 
  230.092  47%   0.000 Lac                                                 
    0.000 999%   0.000 NAA                                                 
    0.000 999%   0.000 NAAG                                                
    0.000 999%   0.000 Scyllo                                              
    0.000 999%   0.000 Tau                                                 
    0.000 999%   0.000 -CrCH2                                              
    0.000 999%   0.000 GPC+PCh                                             
    0.000 999%   0.000 NAA+NAAG                                            
    0.000 999%   0.000 Cr+PCr                                              
  220.005  88%   0.000 Glu+Gln                                             
 6.50E+03  10%   0.000 Lip13a                                              
    0.000 999%   0.000 Lip13b                                              
 1.65E+03  13%   0.000 Lip09                                               
 1.12E+03  16%   0.000 MM09                                                
  866.774  17%   0.000 Lip20                                               
 1.67E+03  16%   0.000 MM20                                                
  336.316  16%   0.000 MM12                                                
  875.747  15%   0.000 MM14                                                
  408.958  17%   0.000 MM17                                                
 6.50E+03  10%   0.000 Lip13a+Lip13b                                       
 7.71E+03   8%   0.000 MM14+Lip13a+Lip13b+MM12                             
 2.77E+03   7%   0.000 MM09+Lip09                                          
 2.54E+03   9%   0.000 MM20+Lip20                                          
   6 lines in following misc. output table
  FWHM = 0.054 ppm    S/N =   3                                            
  Data shift = 0.161 ppm                                                   
  Ph:-161 deg      59.9 deg/ppm                                            
  alphaB,S = 8.5E+01,   7.3E+01                                            
   14 spline knots.   Ns = 5(1)                                            
  ( 3) 2 infls.   ( 3) 3 extrs.                                            
  498 points on ppm-axis = NY
      4.000000     3.992357     3.984714     3.977070     3.969427     3.961784     3.954141     3.946497     3.938854     3.931211
      3.923568     3.915925     3.908281     3.900638     3.892995     3.885352     3.877708     3.870065     3.862422     3.854779
      3.847136     3.839492     3.831849     3.824206     3.816563     3.808919     3.801276     3.793633     3.785990     3.778347
      3.770703     3.763060     3.755417     3.747774     3.740130     3.732487     3.724844     3.717201     3.709558     3.701914
      3.694271     3.686628     3.678985     3.671341     3.663698     3.656055     3.648412     3.640769     3.633125     3.625482
      3.617839     3.610196     3.602552     3.594909     3.587266     3.579623     3.571980     3.564336     3.556693     3.549050
      3.541407     3.533763     3.526120     3.518477     3.510834     3.503191     3.495547     3.487904     3.480261     3.472618
      3.464974     3.457331     3.449688     3.442045     3.434402     3.426758     3.419115     3.411472     3.403829     3.396185
      3.388542     3.380899     3.373256     3.365613     3.357969     3.350326     3.342683     3.335040     3.327396     3.319753
      3.312110     3.304467     3.296824     3.289180     3.281537     3.273894     3.266251     3.258607     3.250964     3.243321
      3.235678     3.228034     3.220391     3.212748     3.205105     3.197462     3.189818     3.182175     3.174532     3.166889
      3.159245     3.151602     3.143959     3.136316     3.128673     3.121029     3.113386     3.105743     3.098100     3.090456
      3.082813     3.075170     3.067527     3.059884     3.052240     3.044597     3.036954     3.029311     3.021667     3.014024
      3.006381     2.998738     2.991095     2.983451     2.975808     2.968165     2.960522     2.952878     2.945235     2.937592
      2.929949     2.922306     2.914662     2.907019     2.899376     2.891733     2.884089     2.876446     2.868803     2.861160
      2.853517     2.845873     2.838230     2.830587     2.822944     2.815300     2.807657     2.800014     2.792371     2.784728
      2.777084     2.769441     2.761798     2.754155     2.746511     2.738868     2.731225     2.723582     2.715939     2.708295
      2.700652     2.693009     2.685366     2.677722     2.670079     2.662436     2.654793     2.647150     2.639506     2.631863
      2.624220     2.616577     2.608933     2.601290     2.593647     2.586004     2.578361     2.570717     2.563074     2.555431
      2.547788     2.540144     2.532501     2.524858     2.517215     2.509572     2.501928     2.494285     2.486642     2.478999
      2.471355     2.463712     2.456069     2.448426     2.440783     2.433139     2.425496     2.417853     2.410210     2.402566
      2.394923     2.387280     2.379637     2.371994     2.364350     2.356707     2.349064     2.341421     2.333777     2.326134
      2.318491     2.310848     2.303205     2.295561     2.287918     2.280275     2.272632     2.264988     2.257345     2.249702
      2.242059     2.234416     2.226772     2.219129     2.211486     2.203843     2.196199     2.188556     2.180913     2.173270
      2.165627     2.157983     2.150340     2.142697     2.135054     2.127410     2.119767     2.112124     2.104481     2.096838
      2.089194     2.081551     2.073908     2.066265     2.058621     2.050978     2.043335     2.035692     2.028049     2.020405
      2.012762     2.005119     1.997476     1.989833     1.982190     1.974546     1.966903     1.959260     1.951617     1.943974
      1.936331     1.928688     1.921045     1.913402     1.905759     1.898115     1.890472     1.882829     1.875186     1.867543
      1.859900     1.852257     1.844614     1.836971     1.829327     1.821684     1.814041     1.806398     1.798755     1.791112
      1.783469     1.775826     1.768183     1.760540     1.752896     1.745253     1.737610     1.729967     1.722324     1.714681
      1.707038     1.699395     1.691752     1.684108     1.676465     1.668822     1.661179     1.653536     1.645893     1.638250
      1.630607     1.622964     1.615321     1.607677     1.600034     1.592391     1.584748     1.577105     1.569462     1.561819
      1.554176     1.546533     1.538890     1.531246     1.523603     1.515960     1.508317     1.500674     1.493031     1.485388
      1.477745     1.470102     1.462458     1.454815     1.447172     1.439529     1.431886     1.424243     1.416600     1.408957
      1.401314     1.393671     1.386027     1.378384     1.370741     1.363098     1.355455     1.347812     1.340169     1.332526
      1.324883     1.317240     1.309596     1.301953     1.294310     1.286667     1.279024     1.271381     1.263738     1.256095
      1.248452     1.240808     1.233165     1.225522     1.217879     1.210236     1.202593     1.194950     1.187307     1.179664
      1.172021     1.164377     1.156734     1.149091     1.141448     1.133805     1.126162     1.118519     1.110876     1.103233
      1.095590     1.087946     1.080303     1.072660     1.065017     1.057374     1.049731     1.042088     1.034445     1.026802
      1.019158     1.011515     1.003872     0.996229     0.988586     0.980943     0.973300     0.965657     0.958014     0.950371
      0.942727     0.935084     0.927441     0.919798     0.912155     0.904512     0.896869     0.889226     0.881583     0.873940
      0.866296     0.858653     0.851010     0.843367     0.835724     0.828081     0.820438     0.812795     0.805152     0.797508
      0.789865     0.782222     0.774579     0.766936     0.759293     0.751650     0.744007     0.736364     0.728721     0.721077
      0.713434     0.705791     0.698148     0.690505     0.682862     0.675219     0.667576     0.659933     0.652290     0.644646
      0.637003     0.629360     0.621717     0.614074     0.606431     0.598788     0.591145     0.583502     0.575858     0.568215
      0.560572     0.552929     0.545286     0.537643     0.530000     0.522357     0.514714     0.507071     0.499427     0.491784
      0.484141     0.476498     0.468855     0.461212     0.453569     0.445925     0.438282     0.430639     0.422996     0.415353
      0.407710     0.400067     0.392424     0.384780     0.377137     0.369494     0.361851     0.354208     0.346565     0.338922
      0.331278     0.323635     0.315992     0.308349     0.300706     0.293063     0.285420     0.277777     0.270133     0.262490
      0.254847     0.247204     0.239561     0.231918     0.224275     0.216631     0.208988     0.201345
 NY phased data points follow
   1.77473E+00  5.13292E+00  7.21455E+00  7.54524E+00  2.82201E+00  4.20809E+00  5.48007E+00  7.18987E+00  5.34682E+00  7.64050E+00
   2.88428E+00  6.21879E+00  2.89334E+00 -1.87451E+00  5.84235E+00  4.66456E+00  1.79561E+00  4.18096E+00  4.42158E+00  1.08705E+00
   4.73350E+00  4.56598E+00  1.14791E+01  5.55573E+00 -2.50608E+00  4.72078E+00  8.76262E-01  3.17348E+00  3.34938E+00  6.64633E+00
   3.48661E+00  9.48729E+00  8.06999E+00  5.32457E+00  4.05697E-01  7.59725E+00  4.00771E+00  3.42386E+00  5.71061E+00  3.55070E+00
   4.93359E+00  4.22664E+00  8.56460E+00  7.39557E+00  3.89444E+00  6.97500E+00  8.35222E+00 -5.26029E-01  4.46707E+00  5.45424E+00
   2.51139E+00  1.63081E+00  2.24052E+00  3.53172E+00  7.31233E+00  3.06391E+00  4.13367E+00  6.89527E+00  1.36091E+00  4.84719E+00
   3.86699E+00  4.89443E+00  3.42901E+00  7.33811E+00  3.87418E+00  2.95471E+00  2.49533E+00  5.16154E+00  8.61857E+00  3.77001E+00
   4.99069E+00  3.58218E+00  1.30737E+00  6.60385E+00  5.69873E+00  2.94943E+00  4.84827E+00  2.31241E+00  5.39292E+00  5.91454E+00
   4.80123E+00  4.72998E-01  2.81854E+00 -3.47492E+00  1.87751E+00 -4.95877E-01  1.25735E-01  2.29616E+00  5.56534E+00  5.42346E+00
   7.30779E+00  2.83571E+00  4.52963E+00  2.62160E+00  1.42694E+00  7.21692E+00 -3.02942E+00  2.44097E+00  3.54584E+00  3.97071E+00
   4.20292E+00  1.53389E+00 -1.72409E+00 -2.03926E-01  2.05132E+00 -4.78084E+00 -6.03715E-01 -2.76386E+00 -2.59428E-02  3.74139E-01
   2.76086E+00  1.55590E+00  8.45020E+00  5.81391E+00  5.14480E+00  4.49587E+00  7.71246E+00  2.49855E+00  5.53823E+00  2.57265E+00
   2.42283E+00 -3.81749E+00  1.47716E+00  1.17111E+00  1.68265E+00  3.45072E+00 -8.28028E-01  3.59232E+00  2.90919E+00  5.85277E+00
   5.63024E+00  1.14427E+00  2.35081E+00  4.47096E+00  8.01982E+00  6.91994E+00  2.83005E-01  1.52695E+00  1.66392E+00  5.09553E+00
   1.17804E+00 -4.58250E-01  1.26310E+00  5.39977E+00 -1.68925E+00 -2.19163E-01 -4.53650E+00  3.89100E+00 -1.32152E+00  5.91308E+00
   6.36990E+00  7.04771E+00  4.75747E+00  9.86168E-01  2.77289E+00  1.07035E+00  5.00447E+00 -2.11399E+00  1.62571E+00 -1.44105E-01
   8.96206E-01  4.06833E+00 -2.07507E+00  2.27420E+00  2.98655E+00 -1.03515E+00  3.73457E-01  1.42784E+00 -1.38545E+00 -1.32188E+00
  -1.94944E+00  1.31904E+00 -9.37539E-01 -3.47044E+00  2.03106E+00  6.04562E+00 -2.28577E+00  7.68859E-01 -1.80294E+00 -2.03248E-02
  -5.75352E-01 -3.77595E+00  2.61252E-02 -5.18364E+00 -1.40759E-02  1.13155E+00  1.04815E-01 -4.28959E+00 -1.36540E+00  8.81736E-01
  -4.07303E+00 -4.50368E+00 -2.39157E-01 -4.50341E+00 -6.49743E+00 -1.32090E+00 -1.95657E+00 -5.14776E+00  1.14059E+00  2.55185E+00
  -4.03304E+00 -1.37623E-01 -4.74851E-01  2.42827E+00  1.08605E+00  7.80956E-01 -1.60480E+00 -7.92261E+00  2.42831E-01 -5.28020E+00
   2.91523E-01  1.05222E-01 -3.43953E+00  7.98666E-02 -6.22231E-01 -3.88359E+00 -3.67560E+00 -1.27853E+00 -1.37326E+00 -1.59080E+00
   4.45856E+00  3.98416E+00  2.92805E-01 -3.60281E+00 -4.44908E+00 -3.36132E+00 -1.95779E+00  9.49194E-01 -3.37662E+00  2.32452E+00
  -3.72020E+00 -2.01793E+00  1.88985E+00 -3.10962E+00 -1.87455E+00 -2.12668E-01 -8.06244E+00 -2.75223E+00 -2.29858E+00 -8.35517E-01
  -3.64255E-01 -6.21013E+00 -4.76215E+00  4.48272E+00  9.24338E+00  5.63786E+00  1.95010E+00  9.32670E-01 -2.44450E+00 -2.86845E+00
  -7.11254E+00 -3.08375E+00 -1.13809E+00 -1.50685E+00 -3.46695E+00 -2.31107E+00 -2.31032E+00  1.09187E+00 -3.21013E+00  2.51721E-01
  -7.51977E+00 -9.84334E-01 -1.58160E+00 -2.64912E+00 -6.49070E+00 -5.83958E+00 -9.59870E+00 -5.21390E+00 -8.01946E+00 -3.50260E+00
  -9.13330E+00 -3.69018E+00 -1.26454E+01 -3.38100E+00 -3.52121E+00 -7.52327E+00 -6.33395E+00 -6.66203E-01 -4.75908E+00 -7.90722E+00
  -9.24180E+00 -3.65013E+00 -4.82548E+00 -7.17063E+00 -1.08944E+01 -4.20926E+00 -1.02625E+01 -6.61254E+00 -9.07299E+00 -7.08669E+00
  -9.74103E+00 -1.08483E+01 -9.33099E+00 -1.14152E+01 -1.03277E+01 -1.16281E+01 -9.96089E+00 -8.08842E+00 -6.28657E+00 -1.11674E+01
  -9.77236E+00 -1.04336E+01 -1.33001E+01 -1.40226E+01 -1.30403E+01 -1.04245E+01 -1.67791E+01 -1.03435E+01 -1.90984E+01 -1.71469E+01
  -2.15541E+01 -1.90969E+01 -1.95976E+01 -2.51514E+01 -2.07980E+01 -1.77050E+01 -1.74083E+01 -1.67518E+01 -1.69879E+01 -1.90185E+01
  -1.62793E+01 -1.45174E+01 -8.91181E+00 -1.41837E+01 -1.06982E+01 -8.43195E+00 -9.13793E+00 -6.37687E+00 -9.68229E+00 -3.76824E+00
  -1.60433E+00 -1.21757E+00 -3.93799E+00 -2.73111E+00  1.95344E+00  1.14054E+00 -6.23319E-01 -7.64158E-01  1.11365E+01  8.95734E+00
   6.36762E+00  5.20621E+00  6.87550E+00  6.95873E+00  1.29225E+01  1.08951E+01  9.50414E+00  6.33362E+00  4.02306E+00  6.71338E+00
   9.38298E+00  6.76070E+00  6.72448E+00  6.46206E+00  1.03668E+01  7.11591E+00  3.77668E+00  5.26912E+00  6.18466E+00  7.59251E+00
   8.29430E+00  9.09044E+00  6.42108E+00  8.91770E+00  4.49684E+00  4.39772E+00  8.85556E+00  4.53451E+00  1.37508E+01  1.08524E+01
   9.23958E+00  6.49192E+00  6.63537E+00  1.16324E+01  6.30511E+00  6.23201E+00  1.00702E+01  4.52915E+00  4.63156E+00  9.38560E+00
   4.67539E+00  5.17669E+00  6.33853E+00  8.13403E+00  6.03974E+00  9.21093E+00  8.89984E+00  3.30689E+00  6.03687E+00  5.56227E+00
   9.40411E+00  4.26122E+00  9.16441E+00  1.07771E+01  7.26819E+00  5.09256E+00  1.01914E+01  9.66322E+00  3.91696E+00  6.18799E+00
   5.76078E+00  9.45184E+00  4.81264E+00  2.96656E+00  3.98206E+00  6.04525E+00  4.84071E+00  3.01645E+00  1.85709E+00  3.20126E+00
   7.61339E+00  7.18329E+00  8.48227E+00  5.68271E+00  3.31840E+00  3.53920E+00  8.65013E+00  4.90855E+00  4.52327E+00  6.47584E+00
   7.00844E+00  6.33469E+00 -8.45410E-02  2.46694E+00  7.19515E+00  5.96358E+00  8.48503E+00  4.77992E+00  4.07448E+00  2.48186E+00
   2.26891E+00  4.41393E+00  5.03345E+00  3.95805E+00  4.40064E+00  4.31604E+00  2.27627E+00  5.93572E+00  5.54941E+00  7.61439E+00
   8.54511E+00  3.06651E+00  3.79619E+00  3.16752E+00  4.76403E+00  8.44437E-01  3.78493E+00  3.48604E+00  3.80144E+00  6.49289E+00
   7.64365E+00  3.01454E+00  2.22223E+00  5.43392E+00 -1.65270E+00  2.78602E+00  2.93674E-01  5.82632E+00  7.80348E+00  9.83459E-01
  -1.31585E+00  2.46682E+00  2.30093E+00  6.56526E+00  1.63459E+00 -8.65236E-01  7.07159E+00 -8.95730E-01  3.09217E-01  2.38569E+00
   3.06161E+00  4.25537E+00  2.67943E+00  5.76049E+00  1.35998E+00  4.61664E+00  2.00243E+00  4.52218E+00 -3.95127E-01  2.85596E+00
   2.36041E+00  4.12145E+00  1.54656E+00  7.30344E-01  4.08911E+00  4.37496E+00  6.31132E-01  1.77963E+00  3.86210E+00  1.40421E+00
   9.65738E-01  6.34315E+00  5.54622E+00  3.87112E+00  6.30962E+00  2.64018E+00  3.66760E+00  4.72457E+00
 NY points of the fit to the data follow
   3.01877E+00  3.24479E+00  3.50712E+00  3.73612E+00  3.89880E+00  4.02531E+00  4.13993E+00  4.24451E+00  4.33971E+00  4.42634E+00
   4.50588E+00  4.58056E+00  4.65215E+00  4.72163E+00  4.79087E+00  4.86058E+00  4.93012E+00  4.99890E+00  5.06669E+00  5.13233E+00
   5.18684E+00  5.19749E+00  5.16051E+00  5.11787E+00  5.10883E+00  5.15959E+00  5.29239E+00  5.52470E+00  5.78831E+00  5.99331E+00
   6.11182E+00  6.14886E+00  6.10632E+00  5.95222E+00  5.70917E+00  5.45335E+00  5.24717E+00  5.15016E+00  5.21034E+00  5.43830E+00
   5.79163E+00  6.29941E+00  6.97543E+00  7.59496E+00  7.85888E+00  7.64279E+00  7.04955E+00  6.26326E+00  5.43077E+00  4.64703E+00
   3.98641E+00  3.53926E+00  3.40805E+00  3.69268E+00  4.33082E+00  5.01941E+00  5.52100E+00  5.75919E+00  5.75344E+00  5.55949E+00
   5.25445E+00  4.92588E+00  4.64791E+00  4.45394E+00  4.36285E+00  4.40196E+00  4.59088E+00  4.85002E+00  5.07719E+00  5.18832E+00
   5.16287E+00  5.02990E+00  4.83364E+00  4.62165E+00  4.42295E+00  4.24383E+00  4.09296E+00  3.97516E+00  3.90441E+00  3.84798E+00
   3.76204E+00  3.60771E+00  3.38066E+00  3.11915E+00  2.89480E+00  2.77031E+00  2.77264E+00  2.89763E+00  3.12779E+00  3.43158E+00
   3.76710E+00  4.08664E+00  4.29946E+00  4.33568E+00  4.20553E+00  3.97397E+00  3.71823E+00  3.48725E+00  3.30797E+00  3.20269E+00
   3.19479E+00  3.27706E+00  3.42297E+00  3.59690E+00  3.74672E+00  3.86042E+00  3.94605E+00  4.01073E+00  4.05307E+00  4.07171E+00
   4.07084E+00  4.06061E+00  4.05008E+00  4.03458E+00  4.01269E+00  3.98651E+00  3.95940E+00  3.93420E+00  3.91272E+00  3.89501E+00
   3.87992E+00  3.86542E+00  3.84895E+00  3.82884E+00  3.80278E+00  3.76939E+00  3.72879E+00  3.68172E+00  3.62907E+00  3.57131E+00
   3.50885E+00  3.44207E+00  3.37146E+00  3.29752E+00  3.22075E+00  3.14147E+00  3.06003E+00  2.97683E+00  2.89231E+00  2.80687E+00
   2.72080E+00  2.63430E+00  2.54753E+00  2.46056E+00  2.37331E+00  2.28574E+00  2.19776E+00  2.10925E+00  2.02006E+00  1.92993E+00
   1.83853E+00  1.74559E+00  1.65094E+00  1.55442E+00  1.45588E+00  1.35516E+00  1.25214E+00  1.14687E+00  1.03953E+00  9.30343E-01
   8.19367E-01  7.06633E-01  5.92236E-01  4.76457E-01  3.59739E-01  2.42411E-01  1.24657E-01  6.91313E-03 -1.10118E-01 -2.25941E-01
  -3.40202E-01 -4.52778E-01 -5.63679E-01 -6.72950E-01 -7.80584E-01 -8.86113E-01 -9.89054E-01 -1.08924E+00 -1.18656E+00 -1.28062E+00
  -1.37106E+00 -1.45839E+00 -1.54291E+00 -1.62448E+00 -1.70434E+00 -1.78386E+00 -1.86341E+00 -1.94279E+00 -2.02390E+00 -2.11751E+00
  -2.23010E+00 -2.36160E+00 -2.51626E+00 -2.67550E+00 -2.81625E+00 -2.91894E+00 -2.95729E+00 -2.89732E+00 -2.73920E+00 -2.52778E+00
  -2.30425E+00 -2.10718E+00 -1.98631E+00 -1.98507E+00 -2.14545E+00 -2.50807E+00 -3.03572E+00 -3.54726E+00 -3.89741E+00 -4.03062E+00
  -3.96942E+00 -3.76654E+00 -3.45244E+00 -3.05815E+00 -2.64222E+00 -2.27212E+00 -2.02198E+00 -1.94310E+00 -1.97891E+00 -2.01313E+00
  -2.02824E+00 -2.03593E+00 -2.03583E+00 -2.02762E+00 -2.01338E+00 -1.99408E+00 -1.97092E+00 -1.94739E+00 -1.92755E+00 -1.90798E+00
  -1.89306E+00 -1.92428E+00 -2.01597E+00 -2.10371E+00 -2.12253E+00 -2.03103E+00 -1.80663E+00 -1.46085E+00 -1.09096E+00 -7.71702E-01
  -5.31597E-01 -3.87914E-01 -3.59770E-01 -4.57505E-01 -6.36814E-01 -8.13170E-01 -9.16450E-01 -8.90821E-01 -7.20517E-01 -4.48462E-01
  -1.74340E-01  5.09867E-02  1.95057E-01  2.34154E-01  1.61467E-01 -1.34437E-02 -2.70328E-01 -5.82181E-01 -9.10161E-01 -1.23202E+00
  -1.54505E+00 -1.84879E+00 -2.14559E+00 -2.44106E+00 -2.74315E+00 -3.05250E+00 -3.37246E+00 -3.70143E+00 -4.03068E+00 -4.35621E+00
  -4.67617E+00 -4.98885E+00 -5.29180E+00 -5.58302E+00 -5.86140E+00 -6.12585E+00 -6.37534E+00 -6.60923E+00 -6.82708E+00 -7.02862E+00
  -7.21396E+00 -7.38363E+00 -7.53841E+00 -7.67920E+00 -7.80697E+00 -7.92310E+00 -8.02937E+00 -8.12781E+00 -8.22056E+00 -8.30999E+00
  -8.39856E+00 -8.48855E+00 -8.58216E+00 -8.68138E+00 -8.78788E+00 -8.90297E+00 -9.02758E+00 -9.16221E+00 -9.30706E+00 -9.46199E+00
  -9.62638E+00 -9.79924E+00 -9.97928E+00 -1.01649E+01 -1.03543E+01 -1.05454E+01 -1.07358E+01 -1.09229E+01 -1.11042E+01 -1.12765E+01
  -1.14368E+01 -1.15814E+01 -1.17066E+01 -1.18083E+01 -1.18821E+01 -1.19234E+01 -1.19276E+01 -1.18898E+01 -1.18053E+01 -1.16697E+01
  -1.14793E+01 -1.12306E+01 -1.09214E+01 -1.05502E+01 -1.01169E+01 -9.62288E+00 -9.07062E+00 -8.46406E+00 -7.80825E+00 -7.10921E+00
  -6.37377E+00 -5.60922E+00 -4.82289E+00 -4.02169E+00 -3.21176E+00 -2.39815E+00 -1.58451E+00 -7.72539E-01  3.89961E-02  8.56258E-01
   1.69639E+00  2.61523E+00  3.78214E+00  5.20090E+00  6.55420E+00  7.60083E+00  8.24014E+00  8.46969E+00  8.30905E+00  7.73969E+00
   6.98007E+00  6.38819E+00  6.16433E+00  6.42014E+00  7.19247E+00  8.26298E+00  9.30464E+00  1.02159E+01  1.09234E+01  1.13223E+01
   1.13148E+01  1.09070E+01  1.03493E+01  9.83438E+00  9.34068E+00  8.84782E+00  8.35080E+00  7.85144E+00  7.35506E+00  6.86889E+00
   6.40104E+00  5.95992E+00  5.55379E+00  5.19048E+00  4.87712E+00  4.61980E+00  4.42318E+00  4.29027E+00  4.22217E+00  4.21806E+00
   4.27507E+00  4.38831E+00  4.55097E+00  4.75447E+00  4.98896E+00  5.24372E+00  5.50767E+00  5.76986E+00  6.01999E+00  6.24891E+00
   6.44907E+00  6.61486E+00  6.74278E+00  6.83146E+00  6.88156E+00  6.89561E+00  6.87771E+00  6.83317E+00  6.76803E+00  6.68866E+00
   6.60130E+00  6.51176E+00  6.42514E+00  6.34560E+00  6.27619E+00  6.21881E+00  6.17422E+00  6.14221E+00  6.12167E+00  6.11080E+00
   6.10722E+00  6.10820E+00  6.11086E+00  6.11238E+00  6.11005E+00  6.10148E+00  6.08459E+00  6.05773E+00  6.01970E+00  5.96980E+00
   5.90776E+00  5.83368E+00  5.74804E+00  5.65160E+00  5.54540E+00  5.43068E+00  5.30876E+00  5.18104E+00  5.04891E+00  4.91376E+00
   4.77693E+00  4.63969E+00  4.50316E+00  4.36835E+00  4.23615E+00  4.10733E+00  3.98255E+00  3.86234E+00  3.74713E+00  3.63723E+00
   3.53286E+00  3.43419E+00  3.34134E+00  3.25435E+00  3.17318E+00  3.09780E+00  3.02812E+00  2.96405E+00  2.90549E+00  2.85230E+00
   2.80433E+00  2.76141E+00  2.72342E+00  2.69021E+00  2.66162E+00  2.63751E+00  2.61772E+00  2.60210E+00  2.59053E+00  2.58288E+00
   2.57902E+00  2.57881E+00  2.58213E+00  2.58888E+00  2.59895E+00  2.61225E+00  2.62866E+00  2.64808E+00  2.67042E+00  2.69560E+00
   2.72356E+00  2.75420E+00  2.78744E+00  2.82319E+00  2.86141E+00  2.90204E+00  2.94500E+00  2.99023E+00  3.03767E+00  3.08725E+00
   3.13894E+00  3.19269E+00  3.24845E+00  3.30615E+00  3.36574E+00  3.42720E+00  3.49047E+00  3.55552E+00  3.62230E+00  3.69076E+00
   3.76086E+00  3.83258E+00  3.90586E+00  3.98068E+00  4.05698E+00  4.13471E+00  4.21385E+00  4.29437E+00
 NY background values follow
     6.369E-01    6.635E-01    6.893E-01    7.145E-01    7.389E-01    7.626E-01    7.856E-01    8.079E-01    8.295E-01    8.504E-01
     8.705E-01    8.900E-01    9.087E-01    9.267E-01    9.440E-01    9.606E-01    9.764E-01    9.916E-01    1.006E+00    1.020E+00
     1.033E+00    1.045E+00    1.057E+00    1.068E+00    1.078E+00    1.087E+00    1.096E+00    1.104E+00    1.111E+00    1.118E+00
     1.124E+00    1.129E+00    1.134E+00    1.138E+00    1.141E+00    1.143E+00    1.145E+00    1.146E+00    1.146E+00    1.146E+00
     1.145E+00    1.143E+00    1.141E+00    1.138E+00    1.134E+00    1.129E+00    1.124E+00    1.118E+00    1.112E+00    1.105E+00
     1.097E+00    1.088E+00    1.079E+00    1.069E+00    1.058E+00    1.047E+00    1.035E+00    1.023E+00    1.009E+00    9.956E-01
     9.810E-01    9.659E-01    9.500E-01    9.335E-01    9.164E-01    8.987E-01    8.803E-01    8.612E-01    8.416E-01    8.212E-01
     8.003E-01    7.788E-01    7.566E-01    7.338E-01    7.104E-01    6.863E-01    6.617E-01    6.365E-01    6.106E-01    5.842E-01
     5.571E-01    5.295E-01    5.013E-01    4.724E-01    4.430E-01    4.131E-01    3.825E-01    3.514E-01    3.197E-01    2.874E-01
     2.546E-01    2.212E-01    1.872E-01    1.528E-01    1.177E-01    8.213E-02    4.601E-02    9.347E-03   -2.784E-02   -6.556E-02
    -1.038E-01   -1.426E-01   -1.818E-01   -2.216E-01   -2.619E-01   -3.027E-01   -3.440E-01   -3.858E-01   -4.281E-01   -4.708E-01
    -5.141E-01   -5.578E-01   -6.020E-01   -6.467E-01   -6.918E-01   -7.374E-01   -7.834E-01   -8.299E-01   -8.768E-01   -9.242E-01
    -9.720E-01   -1.020E+00   -1.069E+00   -1.118E+00   -1.167E+00   -1.217E+00   -1.268E+00   -1.318E+00   -1.369E+00   -1.421E+00
    -1.473E+00   -1.525E+00   -1.578E+00   -1.631E+00   -1.684E+00   -1.738E+00   -1.792E+00   -1.846E+00   -1.901E+00   -1.956E+00
    -2.011E+00   -2.067E+00   -2.123E+00   -2.180E+00   -2.236E+00   -2.293E+00   -2.351E+00   -2.408E+00   -2.466E+00   -2.524E+00
    -2.583E+00   -2.642E+00   -2.701E+00   -2.760E+00   -2.819E+00   -2.879E+00   -2.939E+00   -2.999E+00   -3.060E+00   -3.121E+00
    -3.181E+00   -3.243E+00   -3.304E+00   -3.365E+00   -3.427E+00   -3.489E+00   -3.551E+00   -3.613E+00   -3.676E+00   -3.739E+00
    -3.801E+00   -3.864E+00   -3.927E+00   -3.991E+00   -4.054E+00   -4.117E+00   -4.181E+00   -4.245E+00   -4.309E+00   -4.373E+00
    -4.437E+00   -4.501E+00   -4.565E+00   -4.629E+00   -4.694E+00   -4.758E+00   -4.823E+00   -4.887E+00   -4.952E+00   -5.017E+00
    -5.081E+00   -5.146E+00   -5.211E+00   -5.276E+00   -5.340E+00   -5.405E+00   -5.470E+00   -5.535E+00   -5.599E+00   -5.664E+00
    -5.729E+00   -5.794E+00   -5.858E+00   -5.923E+00   -5.987E+00   -6.052E+00   -6.116E+00   -6.181E+00   -6.245E+00   -6.309E+00
    -6.373E+00   -6.437E+00   -6.501E+00   -6.565E+00   -6.628E+00   -6.692E+00   -6.755E+00   -6.819E+00   -6.882E+00   -6.945E+00
    -7.008E+00   -7.070E+00   -7.133E+00   -7.195E+00   -7.257E+00   -7.319E+00   -7.381E+00   -7.443E+00   -7.504E+00   -7.565E+00
    -7.626E+00   -7.687E+00   -7.747E+00   -7.808E+00   -7.868E+00   -7.927E+00   -7.987E+00   -8.046E+00   -8.105E+00   -8.164E+00
    -8.222E+00   -8.280E+00   -8.338E+00   -8.396E+00   -8.453E+00   -8.510E+00   -8.566E+00   -8.623E+00   -8.678E+00   -8.734E+00
    -8.789E+00   -8.844E+00   -8.899E+00   -8.953E+00   -9.007E+00   -9.060E+00   -9.113E+00   -9.166E+00   -9.218E+00   -9.270E+00
    -9.321E+00   -9.372E+00   -9.423E+00   -9.473E+00   -9.523E+00   -9.572E+00   -9.621E+00   -9.670E+00   -9.718E+00   -9.765E+00
    -9.812E+00   -9.859E+00   -9.905E+00   -9.951E+00   -9.996E+00   -1.004E+01   -1.008E+01   -1.013E+01   -1.017E+01   -1.021E+01
    -1.026E+01   -1.030E+01   -1.034E+01   -1.038E+01   -1.042E+01   -1.046E+01   -1.050E+01   -1.054E+01   -1.057E+01   -1.061E+01
    -1.065E+01   -1.068E+01   -1.072E+01   -1.075E+01   -1.079E+01   -1.082E+01   -1.085E+01   -1.089E+01   -1.092E+01   -1.095E+01
    -1.098E+01   -1.101E+01   -1.104E+01   -1.107E+01   -1.110E+01   -1.112E+01   -1.115E+01   -1.118E+01   -1.120E+01   -1.123E+01
    -1.125E+01   -1.127E+01   -1.130E+01   -1.132E+01   -1.134E+01   -1.136E+01   -1.138E+01   -1.140E+01   -1.142E+01   -1.144E+01
    -1.145E+01   -1.147E+01   -1.148E+01   -1.150E+01   -1.151E+01   -1.153E+01   -1.154E+01   -1.155E+01   -1.156E+01   -1.157E+01
    -1.158E+01   -1.159E+01   -1.160E+01   -1.161E+01   -1.161E+01   -1.162E+01   -1.162E+01   -1.163E+01   -1.163E+01   -1.163E+01
    -1.163E+01   -1.163E+01   -1.163E+01   -1.163E+01   -1.163E+01   -1.163E+01   -1.163E+01   -1.162E+01   -1.162E+01   -1.161E+01
    -1.161E+01   -1.160E+01   -1.159E+01   -1.158E+01   -1.157E+01   -1.156E+01   -1.155E+01   -1.154E+01   -1.152E+01   -1.151E+01
    -1.149E+01   -1.148E+01   -1.146E+01   -1.144E+01   -1.142E+01   -1.141E+01   -1.139E+01   -1.136E+01   -1.134E+01   -1.132E+01
    -1.130E+01   -1.127E+01   -1.124E+01   -1.122E+01   -1.119E+01   -1.116E+01   -1.113E+01   -1.110E+01   -1.107E+01   -1.104E+01
    -1.101E+01   -1.097E+01   -1.094E+01   -1.090E+01   -1.087E+01   -1.083E+01   -1.079E+01   -1.075E+01   -1.071E+01   -1.067E+01
    -1.063E+01   -1.059E+01   -1.054E+01   -1.050E+01   -1.045E+01   -1.041E+01   -1.036E+01   -1.031E+01   -1.026E+01   -1.021E+01
    -1.016E+01   -1.011E+01   -1.005E+01   -9.999E+00   -9.944E+00   -9.888E+00   -9.832E+00   -9.774E+00   -9.715E+00   -9.655E+00
    -9.595E+00   -9.533E+00   -9.471E+00   -9.408E+00   -9.343E+00   -9.278E+00   -9.212E+00   -9.145E+00   -9.077E+00   -9.008E+00
    -8.938E+00   -8.867E+00   -8.795E+00   -8.723E+00   -8.649E+00   -8.574E+00   -8.499E+00   -8.423E+00   -8.345E+00   -8.267E+00
    -8.188E+00   -8.108E+00   -8.027E+00   -7.945E+00   -7.862E+00   -7.778E+00   -7.693E+00   -7.608E+00   -7.521E+00   -7.434E+00
    -7.346E+00   -7.256E+00   -7.166E+00   -7.075E+00   -6.983E+00   -6.890E+00   -6.797E+00   -6.702E+00   -6.606E+00   -6.510E+00
    -6.413E+00   -6.314E+00   -6.215E+00   -6.115E+00   -6.014E+00   -5.912E+00   -5.810E+00   -5.706E+00   -5.602E+00   -5.497E+00
    -5.391E+00   -5.284E+00   -5.176E+00   -5.067E+00   -4.957E+00   -4.847E+00   -4.736E+00   -4.624E+00   -4.511E+00   -4.397E+00
    -4.282E+00   -4.167E+00   -4.050E+00   -3.933E+00   -3.815E+00   -3.696E+00   -3.577E+00   -3.456E+00   -3.335E+00   -3.213E+00
    -3.090E+00   -2.967E+00   -2.842E+00   -2.717E+00   -2.591E+00   -2.464E+00   -2.337E+00   -2.208E+00   -2.079E+00   -1.950E+00
    -1.819E+00   -1.688E+00   -1.555E+00   -1.422E+00   -1.289E+00   -1.155E+00   -1.019E+00   -8.836E-01
 Gln      Conc. = 2.20E+02
