 LCModel (Version 6.3-1L) Copyright: S.W. Provencher.          Ref.: Magn. Reson. Med. 30:672-679 (1993).                
 Slice#1 Row#12 Col#7  K_02_press_1_raw_act
 36 lines in following concentration table = NCONC+1
    Conc.  %SD /Cr+PCr  Metabolite                                         
   62.162 177% 4.6E-02 Ala                                                 
    0.000 999%   0.000 Asp                                                 
  786.821  27%   0.578 Cr                                                  
  573.382  38%   0.422 PCr                                                 
    0.000 999%   0.000 GABA                                                
    0.000 999%   0.000 Glc                                                 
  279.209  81%   0.205 Gln                                                 
 1.35E+03  19%   0.990 Glu                                                 
  331.111   6%   0.243 GPC                                                 
    0.000 999%   0.000 PCh                                                 
  445.377  16%   0.327 GSH                                                 
 1.54E+03  15%   1.134 Ins                                                 
  251.222  48%   0.185 Lac                                                 
 2.13E+03   7%   1.566 NAA                                                 
  437.011  38%   0.321 NAAG                                                
   43.442  55% 3.2E-02 Scyllo                                              
    0.000 999%   0.000 Tau                                                 
   95.966 103% 7.1E-02 -CrCH2                                              
  331.111   6%   0.243 GPC+PCh                                             
 2.57E+03   3%   1.888 NAA+NAAG                                            
 1.36E+03   4%   1.000 Cr+PCr                                              
 1.63E+03  23%   1.195 Glu+Gln                                             
 1.46E+03  35%   1.073 Lip13a                                              
    0.000 999%   0.000 Lip13b                                              
  204.881 111%   0.151 Lip09                                               
 1.23E+03  21%   0.904 MM09                                                
  287.830  53%   0.212 Lip20                                               
 2.57E+03  13%   1.891 MM20                                                
  469.760  38%   0.345 MM12                                                
 1.21E+03  27%   0.889 MM14                                                
  636.201  27%   0.468 MM17                                                
 1.46E+03  35%   1.073 Lip13a+Lip13b                                       
 3.14E+03  10%   2.307 MM14+Lip13a+Lip13b+MM12                             
 1.43E+03  11%   1.054 MM09+Lip09                                          
 2.86E+03  11%   2.102 MM20+Lip20                                          
   6 lines in following misc. output table
  FWHM = 0.061 ppm    S/N =  12                                            
  Data shift =-0.015 ppm                                                   
  Ph: -21 deg       2.9 deg/ppm                                            
  alphaB,S = 3.7E+00,   1.3E+02                                            
   14 spline knots.   Ns = 7(1)                                            
  (10) 2 infls.   ( 9) 1 extrs.                                            
  498 points on ppm-axis = NY
      4.000000     3.992357     3.984714     3.977070     3.969427     3.961784     3.954141     3.946497     3.938854     3.931211
      3.923568     3.915925     3.908281     3.900638     3.892995     3.885352     3.877708     3.870065     3.862422     3.854779
      3.847136     3.839492     3.831849     3.824206     3.816563     3.808919     3.801276     3.793633     3.785990     3.778347
      3.770703     3.763060     3.755417     3.747774     3.740130     3.732487     3.724844     3.717201     3.709558     3.701914
      3.694271     3.686628     3.678985     3.671341     3.663698     3.656055     3.648412     3.640769     3.633125     3.625482
      3.617839     3.610196     3.602552     3.594909     3.587266     3.579623     3.571980     3.564336     3.556693     3.549050
      3.541407     3.533763     3.526120     3.518477     3.510834     3.503191     3.495547     3.487904     3.480261     3.472618
      3.464974     3.457331     3.449688     3.442045     3.434402     3.426758     3.419115     3.411472     3.403829     3.396185
      3.388542     3.380899     3.373256     3.365613     3.357969     3.350326     3.342683     3.335040     3.327396     3.319753
      3.312110     3.304467     3.296824     3.289180     3.281537     3.273894     3.266251     3.258607     3.250964     3.243321
      3.235678     3.228034     3.220391     3.212748     3.205105     3.197462     3.189818     3.182175     3.174532     3.166889
      3.159245     3.151602     3.143959     3.136316     3.128673     3.121029     3.113386     3.105743     3.098100     3.090456
      3.082813     3.075170     3.067527     3.059884     3.052240     3.044597     3.036954     3.029311     3.021667     3.014024
      3.006381     2.998738     2.991095     2.983451     2.975808     2.968165     2.960522     2.952878     2.945235     2.937592
      2.929949     2.922306     2.914662     2.907019     2.899376     2.891733     2.884089     2.876446     2.868803     2.861160
      2.853517     2.845873     2.838230     2.830587     2.822944     2.815300     2.807657     2.800014     2.792371     2.784728
      2.777084     2.769441     2.761798     2.754155     2.746511     2.738868     2.731225     2.723582     2.715939     2.708295
      2.700652     2.693009     2.685366     2.677722     2.670079     2.662436     2.654793     2.647150     2.639506     2.631863
      2.624220     2.616577     2.608933     2.601290     2.593647     2.586004     2.578361     2.570717     2.563074     2.555431
      2.547788     2.540144     2.532501     2.524858     2.517215     2.509572     2.501928     2.494285     2.486642     2.478999
      2.471355     2.463712     2.456069     2.448426     2.440783     2.433139     2.425496     2.417853     2.410210     2.402566
      2.394923     2.387280     2.379637     2.371994     2.364350     2.356707     2.349064     2.341421     2.333777     2.326134
      2.318491     2.310848     2.303205     2.295561     2.287918     2.280275     2.272632     2.264988     2.257345     2.249702
      2.242059     2.234416     2.226772     2.219129     2.211486     2.203843     2.196199     2.188556     2.180913     2.173270
      2.165627     2.157983     2.150340     2.142697     2.135054     2.127410     2.119767     2.112124     2.104481     2.096838
      2.089194     2.081551     2.073908     2.066265     2.058621     2.050978     2.043335     2.035692     2.028049     2.020405
      2.012762     2.005119     1.997476     1.989833     1.982190     1.974546     1.966903     1.959260     1.951617     1.943974
      1.936331     1.928688     1.921045     1.913402     1.905759     1.898115     1.890472     1.882829     1.875186     1.867543
      1.859900     1.852257     1.844614     1.836971     1.829327     1.821684     1.814041     1.806398     1.798755     1.791112
      1.783469     1.775826     1.768183     1.760540     1.752896     1.745253     1.737610     1.729967     1.722324     1.714681
      1.707038     1.699395     1.691752     1.684108     1.676465     1.668822     1.661179     1.653536     1.645893     1.638250
      1.630607     1.622964     1.615321     1.607677     1.600034     1.592391     1.584748     1.577105     1.569462     1.561819
      1.554176     1.546533     1.538890     1.531246     1.523603     1.515960     1.508317     1.500674     1.493031     1.485388
      1.477745     1.470102     1.462458     1.454815     1.447172     1.439529     1.431886     1.424243     1.416600     1.408957
      1.401314     1.393671     1.386027     1.378384     1.370741     1.363098     1.355455     1.347812     1.340169     1.332526
      1.324883     1.317240     1.309596     1.301953     1.294310     1.286667     1.279024     1.271381     1.263738     1.256095
      1.248452     1.240808     1.233165     1.225522     1.217879     1.210236     1.202593     1.194950     1.187307     1.179664
      1.172021     1.164377     1.156734     1.149091     1.141448     1.133805     1.126162     1.118519     1.110876     1.103233
      1.095590     1.087946     1.080303     1.072660     1.065017     1.057374     1.049731     1.042088     1.034445     1.026802
      1.019158     1.011515     1.003872     0.996229     0.988586     0.980943     0.973300     0.965657     0.958014     0.950371
      0.942727     0.935084     0.927441     0.919798     0.912155     0.904512     0.896869     0.889226     0.881583     0.873940
      0.866296     0.858653     0.851010     0.843367     0.835724     0.828081     0.820438     0.812795     0.805152     0.797508
      0.789865     0.782222     0.774579     0.766936     0.759293     0.751650     0.744007     0.736364     0.728721     0.721077
      0.713434     0.705791     0.698148     0.690505     0.682862     0.675219     0.667576     0.659933     0.652290     0.644646
      0.637003     0.629360     0.621717     0.614074     0.606431     0.598788     0.591145     0.583502     0.575858     0.568215
      0.560572     0.552929     0.545286     0.537643     0.530000     0.522357     0.514714     0.507071     0.499427     0.491784
      0.484141     0.476498     0.468855     0.461212     0.453569     0.445925     0.438282     0.430639     0.422996     0.415353
      0.407710     0.400067     0.392424     0.384780     0.377137     0.369494     0.361851     0.354208     0.346565     0.338922
      0.331278     0.323635     0.315992     0.308349     0.300706     0.293063     0.285420     0.277777     0.270133     0.262490
      0.254847     0.247204     0.239561     0.231918     0.224275     0.216631     0.208988     0.201345
 NY phased data points follow
   3.89348E+00  1.04194E+01  7.86932E+00  6.57016E+00  5.18702E+00  9.92591E+00  1.53488E+01  1.48479E+01  1.91427E+01  2.37948E+01
   2.31161E+01  3.16521E+01  3.07614E+01  2.89473E+01  2.40254E+01  2.07190E+01  9.69471E+00  9.43329E+00  9.72859E+00  9.11273E+00
   3.03190E+00  8.29540E+00  4.71627E+00  7.88428E+00  7.71725E+00  6.42493E+00  6.06344E+00  1.12879E+01  7.41750E+00  1.14942E+01
   1.08753E+01  1.20410E+01  1.08084E+01  1.27645E+01  1.34891E+01  1.10684E+01  1.02604E+01  3.63007E+00  1.11442E+01  5.43792E+00
   7.29573E+00  8.71695E+00  1.04993E+01  9.90591E+00  4.08419E+00  1.03042E+01  1.41186E+01  1.35931E+01  1.10268E+01  1.21257E+01
   1.48215E+01  1.15184E+01  1.09968E+01  3.94633E+00  6.64380E+00  7.86029E+00  5.11931E+00  6.28347E+00  7.33620E+00  8.04284E+00
   3.97275E+00  8.51018E+00  8.94451E+00  5.96643E+00  6.48605E+00  7.05074E-01  2.47181E+00  1.17202E+00  3.03994E+00  4.49340E+00
  -1.24124E+00 -1.76153E+00  3.88194E+00 -1.11827E+00  2.30113E+00  2.75649E+00  4.50263E+00 -2.09731E+00  2.47356E+00  4.00013E-01
  -8.38979E-01 -2.36015E+00 -5.51032E+00 -6.08871E-01  1.19667E+00 -2.83938E-01 -4.20134E+00 -9.25301E-01  4.96672E+00  6.00853E-01
   3.12495E+00  3.22402E+00 -3.14216E+00 -3.36391E-01  7.51726E+00  3.06682E+00  4.77405E+00  9.37688E+00  8.50565E+00  1.37308E+01
   1.26197E+01  1.38304E+01  2.30137E+01  2.05648E+01  2.94800E+01  2.92288E+01  2.30858E+01  1.84857E+01  1.33364E+01  7.66640E+00
   1.07130E+00  3.62458E+00  4.62833E+00  5.87244E+00  3.72711E+00 -5.36988E-01  1.32992E+00  2.55029E+00  4.39815E+00  4.56821E+00
   4.80284E+00  5.06971E+00  1.11117E+01  2.00778E+01  2.07545E+01  2.95854E+01  3.28047E+01  4.27574E+01  4.44843E+01  4.35712E+01
   3.81417E+01  2.70288E+01  2.14773E+01  1.69589E+01  8.88931E+00  1.02800E+01  7.09586E+00  2.65063E+00  3.53143E+00  4.86656E+00
  -1.05009E+00  6.48095E+00  2.50086E+00  3.04720E+00  3.05511E+00 -8.48061E-01  2.76969E+00  2.51326E+00 -1.94803E+00  1.06499E+00
   9.60667E-01  2.50477E+00  2.57822E+00  3.81320E-01  9.34636E-01 -2.41212E+00 -1.77001E+00  6.87147E-01  3.93256E+00  3.03320E+00
   9.25698E-01  7.99322E-01  3.58921E-01  3.35069E-01 -2.45484E+00  9.55189E-01 -3.18785E+00  1.61250E+00 -3.43570E+00 -5.81280E+00
  -4.80980E+00 -1.01938E+01 -1.06749E+01 -9.54152E+00 -1.33100E+01 -1.63768E+01 -1.13081E+01 -1.42358E+01 -1.04317E+01 -1.03272E+01
  -1.02846E+01 -6.37725E+00 -1.01814E+01 -8.57382E+00 -7.32998E+00 -6.14589E+00 -7.15571E+00 -1.01158E+01 -7.27296E+00 -6.63221E+00
  -5.11859E+00 -1.31927E+00 -7.87180E+00 -4.27833E+00 -2.37918E-01 -6.61145E+00 -5.31700E+00 -6.92243E+00 -9.92895E+00 -4.74014E+00
  -2.96848E+00 -3.17804E+00 -6.63844E+00 -1.08428E+00  3.23878E-01  4.82898E-01 -9.63576E-01  1.85723E+00 -1.39159E+00 -1.72755E+00
  -4.30906E+00 -1.00106E+00  4.62632E+00  4.02944E+00 -1.35824E+00  3.60382E+00  8.24062E+00  9.58319E+00  3.37645E+00  4.39534E-01
  -3.15457E-02  2.39661E+00 -6.83102E+00 -5.39132E+00 -3.82154E+00  1.19897E+00  2.34022E+00  4.02013E+00  5.73741E+00  9.75861E+00
   1.13763E+01  4.31846E+00  8.67009E+00  1.39471E+00  4.64328E+00  3.68489E+00  3.97407E+00  7.71079E+00  7.43855E+00  4.17477E+00
  -2.25277E+00 -1.81168E-01  2.68053E+00  5.22698E+00 -1.93134E+00  9.29492E+00  9.71223E+00  1.12733E+01  9.85434E+00  1.27899E+01
   1.55217E+01  1.32178E+01  2.29266E+01  2.19098E+01  3.04484E+01  3.35481E+01  5.12481E+01  6.10004E+01  7.17989E+01  7.53365E+01
   7.75168E+01  7.85278E+01  7.83547E+01  6.42321E+01  4.26376E+01  2.99113E+01  1.46089E+01  1.02625E+01  7.07749E+00  3.56096E+00
   2.49197E+00  4.61641E+00  6.40872E-01 -6.36243E-01  3.51894E+00 -9.55945E-01  4.14493E+00  4.34655E+00  2.67520E+00 -8.88299E-01
   8.28508E-01 -9.40821E-01 -3.09123E+00 -5.29818E-01 -3.27268E+00  3.10517E+00  1.96682E+00 -3.20070E+00 -4.94160E+00 -3.09960E+00
  -4.25402E+00  3.62430E+00 -3.52240E+00  1.07985E+00  3.69156E+00 -7.77266E-01  2.40004E-01  2.71234E+00 -1.14259E+00 -1.17789E+00
  -6.35496E-01 -6.82477E-01  5.13378E+00  2.89880E-01  1.29879E+00  3.25951E+00  4.69134E+00  2.24212E-01  6.25397E+00  2.73798E+00
   2.18521E+00  6.19281E+00  6.06965E+00  6.09467E+00  3.68669E+00  5.19180E+00  2.99464E+00  3.51289E+00  2.55115E+00  1.72289E+00
  -2.85640E+00  1.78231E+00  7.48350E-01 -1.14390E+00 -1.41168E+00  1.17739E+00 -6.82275E-03 -7.73565E-01  1.55336E+00  1.05020E+00
   2.19567E+00  2.12769E+00  2.66776E+00  1.01567E+01  4.93155E+00  7.99432E+00  8.27899E+00  9.36827E+00  9.04233E+00  1.02181E+01
   8.62127E+00  1.44771E+01  1.15995E+01  1.02632E+01  9.60979E+00  1.43015E+01  9.28745E+00  8.71961E+00  8.51174E+00  8.44508E+00
   8.06428E+00  4.87238E+00  4.60570E+00  8.17508E+00  3.99108E+00  4.72696E+00  5.77733E+00  6.15385E+00  3.29000E+00  7.36442E+00
   5.21518E+00  7.33051E+00  1.21583E+01  5.87770E+00  8.84981E+00  6.29867E+00  6.73968E+00  8.93959E+00  1.19978E+01  3.87761E+00
   6.61570E+00  9.51078E+00  6.58460E+00  3.66145E+00  2.40956E+00  2.00933E+00  4.42758E+00  4.03299E+00  3.95472E+00  5.13021E-01
   1.22597E+00  1.37832E+00  2.38246E+00  2.75512E+00 -1.00101E+00  2.21132E+00 -2.75445E+00 -1.56509E+00 -7.64686E-01  2.33416E+00
   1.76308E+00  2.44660E+00  2.83577E+00  3.09095E+00  7.19841E+00  3.34001E+00  4.37915E+00  3.02048E+00  6.83836E+00  5.42430E+00
   1.07504E+01  1.01920E+01  5.99873E+00  1.14583E+01  5.79194E+00  4.74218E+00  9.76243E+00  9.47676E+00  9.84816E+00  1.22884E+01
   9.66934E+00  1.33290E+00  4.77254E+00  5.10193E+00  5.88576E+00  2.08820E+00  7.28007E+00  4.85081E+00  5.31650E+00  4.23312E+00
   1.24930E-01  2.12390E+00  2.02197E+00  6.79620E-01  6.03504E-01 -5.78551E+00  1.27953E+00 -1.10726E+00  6.71259E-01  1.82268E+00
   3.68899E-01 -1.78663E+00 -2.35025E+00 -9.88206E-01 -2.55074E+00  1.07790E+00  2.32132E+00 -5.09167E+00  7.87975E-01 -2.19179E+00
   1.73305E-01 -5.05969E-01 -2.19329E+00 -2.63713E-01  2.54128E+00 -8.15089E-01 -2.95119E+00  1.08334E-01  2.47225E+00  5.25386E-01
  -2.28185E+00 -4.23068E+00 -3.15605E+00 -4.47798E-01 -2.70852E+00 -2.80644E+00 -2.64964E+00 -2.47439E+00  1.86175E+00  7.59439E-01
  -1.16508E+00  7.36585E-01  3.26585E+00 -2.59004E+00 -2.48994E+00 -9.99798E+00  1.74161E+00  1.13816E+00 -2.58628E+00  6.10703E-01
   1.27696E-01  7.64839E-01 -2.96675E+00  1.29954E+00  2.42076E+00 -3.56845E+00 -6.56563E-01  7.01236E-01 -4.59180E+00 -1.70920E+00
  -3.20300E+00 -2.45245E+00 -2.33858E+00 -4.51659E-01 -2.67932E+00 -7.16778E-01 -2.15307E+00 -2.59565E+00 -2.88990E-01 -1.69994E+00
  -6.97214E-01  5.92640E-02 -1.55115E+00 -1.04716E-01 -2.52768E-01 -2.92024E+00 -1.65908E+00  1.33460E+00
 NY points of the fit to the data follow
   5.68928E+00  4.89320E+00  4.78751E+00  5.50293E+00  7.14767E+00  9.76321E+00  1.29221E+01  1.64113E+01  2.00805E+01  2.36764E+01
   2.68446E+01  2.90052E+01  2.94612E+01  2.77603E+01  2.40767E+01  1.92997E+01  1.46230E+01  1.08700E+01  8.33424E+00  6.84005E+00
   6.00911E+00  5.48798E+00  5.15837E+00  5.24794E+00  5.60962E+00  6.20809E+00  7.13056E+00  8.32009E+00  9.68281E+00  1.11809E+01
   1.27864E+01  1.41740E+01  1.47783E+01  1.42890E+01  1.28215E+01  1.07722E+01  8.57337E+00  6.55225E+00  4.97256E+00  4.09090E+00
   3.99115E+00  4.63648E+00  5.79489E+00  7.21539E+00  8.72325E+00  1.01745E+01  1.14872E+01  1.25855E+01  1.32530E+01  1.31124E+01
   1.18347E+01  9.53456E+00  6.88431E+00  4.65015E+00  3.25043E+00  2.76845E+00  3.00435E+00  3.65068E+00  4.39895E+00  5.04806E+00
   5.52035E+00  5.73547E+00  5.58468E+00  5.02517E+00  4.17263E+00  3.31542E+00  2.69906E+00  2.46372E+00  2.63229E+00  3.08941E+00
   3.64042E+00  4.12543E+00  4.44550E+00  4.55704E+00  4.44147E+00  4.11663E+00  3.66881E+00  3.21496E+00  2.84288E+00  2.60614E+00
   2.48313E+00  2.36804E+00  2.18770E+00  1.93705E+00  1.61624E+00  1.24105E+00  8.34737E-01  4.00144E-01 -8.53137E-02 -5.70615E-01
  -9.17047E-01 -9.99253E-01 -7.72448E-01 -3.22508E-01  2.22806E-01  9.60943E-01  2.59455E+00  5.02888E+00  7.77629E+00  1.08986E+01
   1.43588E+01  1.80596E+01  2.19147E+01  2.55160E+01  2.78434E+01  2.75871E+01  2.41682E+01  1.85000E+01  1.24025E+01  7.31881E+00
   3.82313E+00  1.79237E+00  9.17444E-01  6.63035E-01  5.84884E-01  5.71665E-01  5.95986E-01  6.73122E-01  8.71397E-01  1.51196E+00
   3.70146E+00  7.46890E+00  1.20550E+01  1.73742E+01  2.31886E+01  2.91537E+01  3.50730E+01  4.04093E+01  4.37816E+01  4.34184E+01
   3.85103E+01  3.02891E+01  2.13398E+01  1.37405E+01  8.28792E+00  4.77427E+00  2.74871E+00  1.63243E+00  1.01140E+00  8.66812E-01
   1.14241E+00  1.66363E+00  2.19465E+00  2.51427E+00  2.50118E+00  2.19253E+00  1.72243E+00  1.21343E+00  7.48798E-01  3.73250E-01
   7.71211E-02 -1.59200E-01 -3.53881E-01 -5.60804E-01 -8.32728E-01 -1.11039E+00 -1.35297E+00 -1.51543E+00 -1.58961E+00 -1.70759E+00
  -1.93036E+00 -2.24420E+00 -2.56418E+00 -2.76478E+00 -2.79553E+00 -2.76651E+00 -2.88182E+00 -3.26209E+00 -3.88116E+00 -4.62416E+00
  -5.27384E+00 -5.70967E+00 -5.96788E+00 -6.13310E+00 -6.32616E+00 -6.57311E+00 -6.81746E+00 -6.92501E+00 -6.82099E+00 -6.59805E+00
  -6.45535E+00 -6.42469E+00 -6.42487E+00 -6.28038E+00 -5.85411E+00 -5.17270E+00 -4.32536E+00 -3.36950E+00 -2.27526E+00 -1.03673E+00
   1.56935E-01  1.01265E+00  1.39776E+00  1.27520E+00  7.03850E-01 -9.76829E-02 -8.25362E-01 -1.26151E+00 -1.34359E+00 -1.02850E+00
  -3.56775E-01  5.55093E-01  1.46202E+00  2.04807E+00  2.19910E+00  1.82900E+00  8.82759E-01 -4.27354E-01 -1.77084E+00 -2.73181E+00
  -3.18221E+00 -3.05120E+00 -2.25810E+00 -9.16045E-01  6.83145E-01  2.11767E+00  2.98481E+00  2.98887E+00  1.93934E+00 -5.97717E-02
  -2.40248E+00 -4.42653E+00 -5.68023E+00 -5.85093E+00 -4.88287E+00 -2.92135E+00 -4.65566E-01  1.81668E+00  3.47018E+00  4.37147E+00
   4.68117E+00  4.62617E+00  4.43785E+00  4.37525E+00  4.60066E+00  5.04339E+00  5.47177E+00  5.75315E+00  5.81360E+00  5.60778E+00
   5.16717E+00  4.69915E+00  4.45271E+00  4.58492E+00  5.16841E+00  6.17017E+00  7.44717E+00  8.72569E+00  9.87952E+00  1.11922E+01
   1.26287E+01  1.42260E+01  1.69297E+01  2.28668E+01  3.10775E+01  4.03809E+01  5.04130E+01  6.01027E+01  6.84008E+01  7.48971E+01
   7.92023E+01  7.97644E+01  7.43239E+01  6.23896E+01  4.67701E+01  3.16848E+01  1.97946E+01  1.17945E+01  7.09299E+00  4.96513E+00
   4.00303E+00  3.37672E+00  2.92383E+00  2.59028E+00  2.32792E+00  2.08859E+00  1.82763E+00  1.50965E+00  1.14077E+00  7.65970E-01
   4.30061E-01  1.54307E-01 -5.54666E-02 -2.04370E-01 -3.09375E-01 -3.88578E-01 -4.59889E-01 -5.27084E-01 -5.80148E-01 -6.06145E-01
  -5.92644E-01 -5.28747E-01 -4.11568E-01 -2.43091E-01 -3.51326E-02  1.96781E-01  4.42351E-01  6.97910E-01  9.63272E-01  1.23912E+00
   1.52545E+00  1.82200E+00  2.12240E+00  2.41348E+00  2.67911E+00  2.90492E+00  3.08070E+00  3.20094E+00  3.26382E+00  3.27151E+00
   3.22833E+00  3.14017E+00  3.01506E+00  2.86259E+00  2.69357E+00  2.51983E+00  2.35401E+00  2.20935E+00  2.09995E+00  2.04309E+00
   2.05730E+00  2.12390E+00  2.22641E+00  2.36635E+00  2.53540E+00  2.72345E+00  2.91907E+00  3.10271E+00  3.27638E+00  3.45202E+00
   3.65074E+00  3.93163E+00  4.33962E+00  4.87268E+00  5.50396E+00  6.20058E+00  6.92317E+00  7.60768E+00  8.19490E+00  8.67867E+00
   9.13006E+00  9.57373E+00  9.91499E+00  1.01562E+01  1.02910E+01  1.02768E+01  1.00753E+01  9.63758E+00  8.97951E+00  8.14171E+00
   7.16348E+00  6.27811E+00  5.76179E+00  5.72723E+00  6.13599E+00  6.87974E+00  7.79793E+00  8.64476E+00  9.13362E+00  9.15044E+00
   8.77920E+00  8.19824E+00  7.56577E+00  6.96953E+00  6.45098E+00  6.01315E+00  5.61480E+00  5.23555E+00  4.86835E+00  4.51116E+00
   4.16425E+00  3.82916E+00  3.50824E+00  3.20425E+00  2.92007E+00  2.65849E+00  2.42214E+00  2.21355E+00  2.03519E+00  1.88940E+00
   1.77832E+00  1.70387E+00  1.66784E+00  1.67195E+00  1.71791E+00  1.80718E+00  1.94095E+00  2.11998E+00  2.34459E+00  2.61451E+00
   2.92871E+00  3.28510E+00  3.68033E+00  4.10971E+00  4.56714E+00  5.04509E+00  5.53463E+00  6.02544E+00  6.50610E+00  6.96442E+00
   7.38806E+00  7.76484E+00  8.08333E+00  8.33329E+00  8.50622E+00  8.59586E+00  8.59857E+00  8.51340E+00  8.34219E+00  8.08930E+00
   7.76159E+00  7.36794E+00  6.91888E+00  6.42592E+00  5.90103E+00  5.35607E+00  4.80241E+00  4.25051E+00  3.70965E+00  3.18757E+00
   2.69044E+00  2.22282E+00  1.78784E+00  1.38730E+00  1.02182E+00  6.90949E-01  3.93458E-01  1.27515E-01 -1.09013E-01 -3.18502E-01
  -5.03418E-01 -6.66303E-01 -8.09591E-01 -9.35562E-01 -1.04624E+00 -1.14349E+00 -1.22897E+00 -1.30426E+00 -1.37065E+00 -1.42930E+00
  -1.48111E+00 -1.52692E+00 -1.56749E+00 -1.60349E+00 -1.63546E+00 -1.66385E+00 -1.68900E+00 -1.71128E+00 -1.73102E+00 -1.74851E+00
  -1.76398E+00 -1.77757E+00 -1.78944E+00 -1.79976E+00 -1.80871E+00 -1.81643E+00 -1.82298E+00 -1.82844E+00 -1.83287E+00 -1.83639E+00
  -1.83911E+00 -1.84109E+00 -1.84234E+00 -1.84288E+00 -1.84278E+00 -1.84212E+00 -1.84094E+00 -1.83928E+00 -1.83712E+00 -1.83447E+00
  -1.83140E+00 -1.82797E+00 -1.82418E+00 -1.82005E+00 -1.81554E+00 -1.81069E+00 -1.80554E+00 -1.80015E+00 -1.79449E+00 -1.78856E+00
  -1.78234E+00 -1.77589E+00 -1.76922E+00 -1.76236E+00 -1.75529E+00 -1.74799E+00 -1.74044E+00 -1.73272E+00 -1.72482E+00 -1.71677E+00
  -1.70849E+00 -1.70001E+00 -1.69131E+00 -1.68245E+00 -1.67342E+00 -1.66420E+00 -1.65474E+00 -1.64503E+00
 NY background values follow
     1.636E+00    1.611E+00    1.585E+00    1.560E+00    1.535E+00    1.510E+00    1.485E+00    1.460E+00    1.434E+00    1.409E+00
     1.384E+00    1.359E+00    1.334E+00    1.309E+00    1.283E+00    1.258E+00    1.233E+00    1.208E+00    1.183E+00    1.158E+00
     1.132E+00    1.107E+00    1.082E+00    1.057E+00    1.032E+00    1.007E+00    9.815E-01    9.563E-01    9.312E-01    9.061E-01
     8.809E-01    8.558E-01    8.307E-01    8.056E-01    7.805E-01    7.554E-01    7.303E-01    7.052E-01    6.801E-01    6.550E-01
     6.300E-01    6.049E-01    5.798E-01    5.548E-01    5.297E-01    5.047E-01    4.797E-01    4.546E-01    4.296E-01    4.046E-01
     3.796E-01    3.546E-01    3.297E-01    3.047E-01    2.798E-01    2.548E-01    2.299E-01    2.050E-01    1.801E-01    1.553E-01
     1.304E-01    1.056E-01    8.077E-02    5.598E-02    3.121E-02    6.469E-03   -1.825E-02   -4.295E-02   -6.763E-02   -9.228E-02
    -1.169E-01   -1.415E-01   -1.661E-01   -1.906E-01   -2.151E-01   -2.396E-01   -2.641E-01   -2.885E-01   -3.129E-01   -3.372E-01
    -3.615E-01   -3.858E-01   -4.101E-01   -4.343E-01   -4.585E-01   -4.826E-01   -5.067E-01   -5.308E-01   -5.548E-01   -5.788E-01
    -6.027E-01   -6.266E-01   -6.505E-01   -6.743E-01   -6.981E-01   -7.218E-01   -7.455E-01   -7.691E-01   -7.927E-01   -8.162E-01
    -8.397E-01   -8.631E-01   -8.865E-01   -9.099E-01   -9.332E-01   -9.564E-01   -9.796E-01   -1.003E+00   -1.026E+00   -1.049E+00
    -1.072E+00   -1.095E+00   -1.118E+00   -1.141E+00   -1.163E+00   -1.186E+00   -1.209E+00   -1.231E+00   -1.254E+00   -1.276E+00
    -1.299E+00   -1.321E+00   -1.343E+00   -1.366E+00   -1.388E+00   -1.410E+00   -1.432E+00   -1.454E+00   -1.476E+00   -1.498E+00
    -1.520E+00   -1.541E+00   -1.563E+00   -1.585E+00   -1.606E+00   -1.628E+00   -1.649E+00   -1.671E+00   -1.692E+00   -1.713E+00
    -1.734E+00   -1.755E+00   -1.776E+00   -1.797E+00   -1.818E+00   -1.839E+00   -1.859E+00   -1.880E+00   -1.900E+00   -1.921E+00
    -1.941E+00   -1.961E+00   -1.981E+00   -2.001E+00   -2.021E+00   -2.041E+00   -2.061E+00   -2.080E+00   -2.099E+00   -2.119E+00
    -2.138E+00   -2.157E+00   -2.176E+00   -2.195E+00   -2.214E+00   -2.232E+00   -2.251E+00   -2.269E+00   -2.287E+00   -2.305E+00
    -2.323E+00   -2.341E+00   -2.359E+00   -2.376E+00   -2.394E+00   -2.411E+00   -2.428E+00   -2.445E+00   -2.461E+00   -2.478E+00
    -2.494E+00   -2.511E+00   -2.527E+00   -2.543E+00   -2.559E+00   -2.574E+00   -2.590E+00   -2.605E+00   -2.620E+00   -2.635E+00
    -2.650E+00   -2.665E+00   -2.679E+00   -2.694E+00   -2.708E+00   -2.722E+00   -2.736E+00   -2.750E+00   -2.763E+00   -2.777E+00
    -2.790E+00   -2.803E+00   -2.816E+00   -2.829E+00   -2.842E+00   -2.854E+00   -2.867E+00   -2.879E+00   -2.891E+00   -2.903E+00
    -2.915E+00   -2.926E+00   -2.938E+00   -2.949E+00   -2.960E+00   -2.971E+00   -2.982E+00   -2.993E+00   -3.004E+00   -3.014E+00
    -3.025E+00   -3.035E+00   -3.045E+00   -3.055E+00   -3.064E+00   -3.074E+00   -3.084E+00   -3.093E+00   -3.102E+00   -3.111E+00
    -3.120E+00   -3.129E+00   -3.138E+00   -3.146E+00   -3.154E+00   -3.163E+00   -3.171E+00   -3.179E+00   -3.186E+00   -3.194E+00
    -3.202E+00   -3.209E+00   -3.216E+00   -3.223E+00   -3.230E+00   -3.237E+00   -3.244E+00   -3.250E+00   -3.257E+00   -3.263E+00
    -3.269E+00   -3.275E+00   -3.281E+00   -3.287E+00   -3.292E+00   -3.297E+00   -3.303E+00   -3.308E+00   -3.313E+00   -3.318E+00
    -3.323E+00   -3.327E+00   -3.332E+00   -3.336E+00   -3.340E+00   -3.344E+00   -3.348E+00   -3.352E+00   -3.355E+00   -3.359E+00
    -3.362E+00   -3.365E+00   -3.368E+00   -3.371E+00   -3.374E+00   -3.377E+00   -3.379E+00   -3.382E+00   -3.384E+00   -3.386E+00
    -3.388E+00   -3.390E+00   -3.392E+00   -3.393E+00   -3.395E+00   -3.396E+00   -3.397E+00   -3.398E+00   -3.399E+00   -3.400E+00
    -3.401E+00   -3.401E+00   -3.402E+00   -3.402E+00   -3.402E+00   -3.402E+00   -3.402E+00   -3.402E+00   -3.401E+00   -3.401E+00
    -3.400E+00   -3.399E+00   -3.399E+00   -3.398E+00   -3.397E+00   -3.395E+00   -3.394E+00   -3.392E+00   -3.391E+00   -3.389E+00
    -3.387E+00   -3.385E+00   -3.383E+00   -3.381E+00   -3.379E+00   -3.376E+00   -3.374E+00   -3.371E+00   -3.368E+00   -3.366E+00
    -3.363E+00   -3.359E+00   -3.356E+00   -3.353E+00   -3.349E+00   -3.346E+00   -3.342E+00   -3.338E+00   -3.334E+00   -3.330E+00
    -3.326E+00   -3.322E+00   -3.318E+00   -3.313E+00   -3.309E+00   -3.304E+00   -3.299E+00   -3.295E+00   -3.290E+00   -3.285E+00
    -3.279E+00   -3.274E+00   -3.269E+00   -3.263E+00   -3.258E+00   -3.252E+00   -3.247E+00   -3.241E+00   -3.235E+00   -3.229E+00
    -3.223E+00   -3.217E+00   -3.210E+00   -3.204E+00   -3.198E+00   -3.191E+00   -3.184E+00   -3.178E+00   -3.171E+00   -3.164E+00
    -3.157E+00   -3.150E+00   -3.143E+00   -3.136E+00   -3.128E+00   -3.121E+00   -3.114E+00   -3.106E+00   -3.099E+00   -3.091E+00
    -3.083E+00   -3.075E+00   -3.067E+00   -3.059E+00   -3.051E+00   -3.043E+00   -3.035E+00   -3.027E+00   -3.019E+00   -3.010E+00
    -3.002E+00   -2.993E+00   -2.984E+00   -2.976E+00   -2.967E+00   -2.958E+00   -2.949E+00   -2.940E+00   -2.931E+00   -2.922E+00
    -2.913E+00   -2.904E+00   -2.895E+00   -2.885E+00   -2.876E+00   -2.866E+00   -2.857E+00   -2.847E+00   -2.837E+00   -2.828E+00
    -2.818E+00   -2.808E+00   -2.798E+00   -2.788E+00   -2.778E+00   -2.768E+00   -2.758E+00   -2.748E+00   -2.738E+00   -2.727E+00
    -2.717E+00   -2.707E+00   -2.696E+00   -2.686E+00   -2.675E+00   -2.665E+00   -2.654E+00   -2.643E+00   -2.633E+00   -2.622E+00
    -2.611E+00   -2.600E+00   -2.589E+00   -2.578E+00   -2.567E+00   -2.556E+00   -2.545E+00   -2.534E+00   -2.523E+00   -2.512E+00
    -2.501E+00   -2.490E+00   -2.478E+00   -2.467E+00   -2.456E+00   -2.444E+00   -2.433E+00   -2.422E+00   -2.410E+00   -2.399E+00
    -2.387E+00   -2.376E+00   -2.364E+00   -2.353E+00   -2.341E+00   -2.329E+00   -2.318E+00   -2.306E+00   -2.295E+00   -2.283E+00
    -2.271E+00   -2.260E+00   -2.248E+00   -2.236E+00   -2.224E+00   -2.213E+00   -2.201E+00   -2.189E+00   -2.177E+00   -2.166E+00
    -2.154E+00   -2.142E+00   -2.130E+00   -2.118E+00   -2.106E+00   -2.095E+00   -2.083E+00   -2.071E+00   -2.059E+00   -2.047E+00
    -2.035E+00   -2.023E+00   -2.012E+00   -2.000E+00   -1.988E+00   -1.976E+00   -1.964E+00   -1.952E+00   -1.940E+00   -1.928E+00
    -1.916E+00   -1.904E+00   -1.892E+00   -1.880E+00   -1.868E+00   -1.856E+00   -1.844E+00   -1.833E+00   -1.821E+00   -1.809E+00
    -1.797E+00   -1.785E+00   -1.773E+00   -1.761E+00   -1.749E+00   -1.737E+00   -1.725E+00   -1.713E+00
 Ala      Conc. = 6.22E+01
