 LCModel (Version 6.3-1L) Copyright: S.W. Provencher.          Ref.: Magn. Reson. Med. 30:672-679 (1993).                
 Slice#1 Row#5 Col#12  K_02_press_1_raw_act
 36 lines in following concentration table = NCONC+1
    Conc.  %SD /Cr+PCr  Metabolite                                         
 1.68E+03  21%   3.657 Ala                                                 
   32.568 475% 7.1E-02 Asp                                                 
    0.000 999%   0.000 Cr                                                  
  458.372  14%   1.000 PCr                                                 
   57.445 173%   0.125 GABA                                                
   67.588 144%   0.147 Glc                                                 
 1.90E+03  34%   4.137 Gln                                                 
 1.91E+03  40%   4.171 Glu                                                 
   66.596 158%   0.145 GPC                                                 
   31.501 337% 6.9E-02 PCh                                                 
  179.385  68%   0.391 GSH                                                 
  345.382  99%   0.753 Ins                                                 
    0.000 999%   0.000 Lac                                                 
 2.62E+03   4%   5.711 NAA                                                 
    0.000 999%   0.000 NAAG                                                
   48.062  52%   0.105 Scyllo                                              
  262.221  57%   0.572 Tau                                                 
  340.133  33%   0.742 -CrCH2                                              
   98.097  26%   0.214 GPC+PCh                                             
 2.62E+03   4%   5.711 NAA+NAAG                                            
  458.372  14%   1.000 Cr+PCr                                              
 3.81E+03  34%   8.308 Glu+Gln                                             
    0.000 999%   0.000 Lip13a                                              
    0.000 999%   0.000 Lip13b                                              
    0.000 999%   0.000 Lip09                                               
  929.213  15%   2.027 MM09                                                
 2.36E-02 999% 5.1E-05 Lip20                                               
 2.44E+03  17%   5.330 MM20                                                
    0.000 999%   0.000 MM12                                                
 2.88E+03  12%   6.290 MM14                                                
 1.31E+03  22%   2.867 MM17                                                
    0.000 999%   0.000 Lip13a+Lip13b                                       
 2.88E+03  12%   6.290 MM14+Lip13a+Lip13b+MM12                             
  929.213  15%   2.027 MM09+Lip09                                          
 2.44E+03  17%   5.330 MM20+Lip20                                          
   6 lines in following misc. output table
  FWHM = 0.107 ppm    S/N =   9                                            
  Data shift = 0.054 ppm                                                   
  Ph: -40 deg     -22.8 deg/ppm                                            
  alphaB,S = 5.1E-01,   1.8E+02                                            
   14 spline knots.   Ns = 7(2)                                            
  ( 8) 2 infls.   ( 3) 1 extrs.                                            
  498 points on ppm-axis = NY
      4.000000     3.992357     3.984714     3.977070     3.969427     3.961784     3.954141     3.946497     3.938854     3.931211
      3.923568     3.915925     3.908281     3.900638     3.892995     3.885352     3.877708     3.870065     3.862422     3.854779
      3.847136     3.839492     3.831849     3.824206     3.816563     3.808919     3.801276     3.793633     3.785990     3.778347
      3.770703     3.763060     3.755417     3.747774     3.740130     3.732487     3.724844     3.717201     3.709558     3.701914
      3.694271     3.686628     3.678985     3.671341     3.663698     3.656055     3.648412     3.640769     3.633125     3.625482
      3.617839     3.610196     3.602552     3.594909     3.587266     3.579623     3.571980     3.564336     3.556693     3.549050
      3.541407     3.533763     3.526120     3.518477     3.510834     3.503191     3.495547     3.487904     3.480261     3.472618
      3.464974     3.457331     3.449688     3.442045     3.434402     3.426758     3.419115     3.411472     3.403829     3.396185
      3.388542     3.380899     3.373256     3.365613     3.357969     3.350326     3.342683     3.335040     3.327396     3.319753
      3.312110     3.304467     3.296824     3.289180     3.281537     3.273894     3.266251     3.258607     3.250964     3.243321
      3.235678     3.228034     3.220391     3.212748     3.205105     3.197462     3.189818     3.182175     3.174532     3.166889
      3.159245     3.151602     3.143959     3.136316     3.128673     3.121029     3.113386     3.105743     3.098100     3.090456
      3.082813     3.075170     3.067527     3.059884     3.052240     3.044597     3.036954     3.029311     3.021667     3.014024
      3.006381     2.998738     2.991095     2.983451     2.975808     2.968165     2.960522     2.952878     2.945235     2.937592
      2.929949     2.922306     2.914662     2.907019     2.899376     2.891733     2.884089     2.876446     2.868803     2.861160
      2.853517     2.845873     2.838230     2.830587     2.822944     2.815300     2.807657     2.800014     2.792371     2.784728
      2.777084     2.769441     2.761798     2.754155     2.746511     2.738868     2.731225     2.723582     2.715939     2.708295
      2.700652     2.693009     2.685366     2.677722     2.670079     2.662436     2.654793     2.647150     2.639506     2.631863
      2.624220     2.616577     2.608933     2.601290     2.593647     2.586004     2.578361     2.570717     2.563074     2.555431
      2.547788     2.540144     2.532501     2.524858     2.517215     2.509572     2.501928     2.494285     2.486642     2.478999
      2.471355     2.463712     2.456069     2.448426     2.440783     2.433139     2.425496     2.417853     2.410210     2.402566
      2.394923     2.387280     2.379637     2.371994     2.364350     2.356707     2.349064     2.341421     2.333777     2.326134
      2.318491     2.310848     2.303205     2.295561     2.287918     2.280275     2.272632     2.264988     2.257345     2.249702
      2.242059     2.234416     2.226772     2.219129     2.211486     2.203843     2.196199     2.188556     2.180913     2.173270
      2.165627     2.157983     2.150340     2.142697     2.135054     2.127410     2.119767     2.112124     2.104481     2.096838
      2.089194     2.081551     2.073908     2.066265     2.058621     2.050978     2.043335     2.035692     2.028049     2.020405
      2.012762     2.005119     1.997476     1.989833     1.982190     1.974546     1.966903     1.959260     1.951617     1.943974
      1.936331     1.928688     1.921045     1.913402     1.905759     1.898115     1.890472     1.882829     1.875186     1.867543
      1.859900     1.852257     1.844614     1.836971     1.829327     1.821684     1.814041     1.806398     1.798755     1.791112
      1.783469     1.775826     1.768183     1.760540     1.752896     1.745253     1.737610     1.729967     1.722324     1.714681
      1.707038     1.699395     1.691752     1.684108     1.676465     1.668822     1.661179     1.653536     1.645893     1.638250
      1.630607     1.622964     1.615321     1.607677     1.600034     1.592391     1.584748     1.577105     1.569462     1.561819
      1.554176     1.546533     1.538890     1.531246     1.523603     1.515960     1.508317     1.500674     1.493031     1.485388
      1.477745     1.470102     1.462458     1.454815     1.447172     1.439529     1.431886     1.424243     1.416600     1.408957
      1.401314     1.393671     1.386027     1.378384     1.370741     1.363098     1.355455     1.347812     1.340169     1.332526
      1.324883     1.317240     1.309596     1.301953     1.294310     1.286667     1.279024     1.271381     1.263738     1.256095
      1.248452     1.240808     1.233165     1.225522     1.217879     1.210236     1.202593     1.194950     1.187307     1.179664
      1.172021     1.164377     1.156734     1.149091     1.141448     1.133805     1.126162     1.118519     1.110876     1.103233
      1.095590     1.087946     1.080303     1.072660     1.065017     1.057374     1.049731     1.042088     1.034445     1.026802
      1.019158     1.011515     1.003872     0.996229     0.988586     0.980943     0.973300     0.965657     0.958014     0.950371
      0.942727     0.935084     0.927441     0.919798     0.912155     0.904512     0.896869     0.889226     0.881583     0.873940
      0.866296     0.858653     0.851010     0.843367     0.835724     0.828081     0.820438     0.812795     0.805152     0.797508
      0.789865     0.782222     0.774579     0.766936     0.759293     0.751650     0.744007     0.736364     0.728721     0.721077
      0.713434     0.705791     0.698148     0.690505     0.682862     0.675219     0.667576     0.659933     0.652290     0.644646
      0.637003     0.629360     0.621717     0.614074     0.606431     0.598788     0.591145     0.583502     0.575858     0.568215
      0.560572     0.552929     0.545286     0.537643     0.530000     0.522357     0.514714     0.507071     0.499427     0.491784
      0.484141     0.476498     0.468855     0.461212     0.453569     0.445925     0.438282     0.430639     0.422996     0.415353
      0.407710     0.400067     0.392424     0.384780     0.377137     0.369494     0.361851     0.354208     0.346565     0.338922
      0.331278     0.323635     0.315992     0.308349     0.300706     0.293063     0.285420     0.277777     0.270133     0.262490
      0.254847     0.247204     0.239561     0.231918     0.224275     0.216631     0.208988     0.201345
 NY phased data points follow
  -2.51945E+00 -1.45965E+00 -1.07997E+00  2.27421E+00 -1.34646E+00  3.56726E-01 -6.19364E-01 -2.67368E+00 -7.72971E-01  2.84360E+00
  -2.60157E+00  4.61580E-01 -1.17212E-01 -4.32598E+00 -4.19358E+00  4.29420E-01  2.89649E+00  1.81841E+00  2.86458E+00 -2.28473E+00
   1.31005E+00  2.75288E+00  7.32725E-01  3.01358E+00  5.95808E-01 -1.23510E+00  1.59473E+00 -2.11302E+00  1.77157E+00 -4.74909E-01
   4.89653E+00  3.96444E+00  2.42626E+00  1.53406E+00  1.17214E+00  5.43113E+00  4.07357E+00  3.56779E+00  3.38790E+00  2.56400E+00
  -1.31865E+00  2.87098E+00 -1.41246E+00  1.79932E+00 -2.38991E+00  2.85498E+00  5.05290E+00  3.03069E+00  3.84133E+00  2.93195E+00
   4.87363E+00  2.02193E+00  5.53637E-01 -7.43773E-01 -5.99317E-01 -3.19406E-01  1.84620E+00  1.15648E+00 -8.39707E-01  7.32658E-01
  -2.42946E+00 -6.70052E-01  3.80777E+00  2.52461E+00  2.69464E+00 -4.25326E-02  2.87991E+00  9.45807E-01 -1.34466E-01  2.23337E+00
   1.24915E+00  7.89068E-01 -3.90024E-01  4.38084E+00 -1.16460E+00  1.15524E+00  1.09624E+00  2.39285E-01  1.96367E-01  1.86856E-01
   4.83332E+00 -6.32720E-01  3.18028E+00  5.41938E-01 -5.66547E-01  1.34181E+00 -9.48434E-01  1.31784E+00  2.58106E+00  2.96818E+00
   1.06592E+00  3.44898E+00  3.14725E+00  6.66670E+00  3.77687E+00  5.30834E+00  7.03736E+00  2.78326E+00  1.96850E+00  4.46735E-01
   4.56592E+00  6.09711E+00  6.94932E+00  6.10894E+00  6.26877E+00  6.88012E+00  1.08432E+00  6.64093E+00  3.45775E+00  3.58364E+00
   8.42814E-01  3.73160E+00  1.90176E+00  2.39722E-02  2.28658E+00  4.11143E+00  5.46835E-01  3.59748E+00  4.51116E+00  7.54635E+00
   5.18551E+00  6.97792E+00  6.49250E+00  8.62331E+00  1.08410E+01  9.65380E+00  1.24794E+01  1.31581E+01  9.32744E+00  9.73071E+00
   4.11889E+00  6.43131E+00  5.78230E+00  5.21228E+00  5.23334E+00  3.32000E+00  2.79388E+00  4.13511E+00  1.90833E+00  4.53338E+00
   1.10954E+00  3.41019E+00  3.18442E+00 -7.32512E-01  1.73724E+00  2.03692E-01  1.29867E+00  1.14036E+00 -7.60821E-01  2.70368E+00
   2.51478E+00  6.60700E-01  1.93946E+00  4.73617E-01  1.52667E+00  2.94761E+00  3.17912E+00 -1.88898E+00  2.13227E+00  3.52143E+00
   1.25625E+00  8.99084E-03 -2.67486E-01 -1.04277E+00 -3.34544E+00 -3.18155E+00 -5.82124E+00 -4.55771E+00 -7.03384E+00 -6.24148E+00
  -1.33913E+00 -5.23723E+00 -5.93893E+00 -4.86537E+00 -6.55277E+00 -7.11505E+00 -7.17025E+00 -4.40156E+00 -9.26906E+00 -5.72078E+00
  -5.64969E+00 -7.28311E+00 -2.53876E-02 -5.84300E+00 -5.19152E-01 -2.80216E+00 -4.27584E+00 -3.62372E+00 -3.39609E+00 -2.30753E+00
  -3.86367E+00 -4.68106E+00 -4.85220E+00 -4.54413E+00 -6.53788E+00 -9.34179E+00 -3.12259E+00 -7.06270E+00 -6.34516E+00 -2.78209E-01
  -2.69987E+00 -2.27704E+00 -3.22578E+00  8.25419E-01 -2.32421E+00 -2.07590E+00  6.34319E-01  1.17255E+00  1.22738E+00 -6.51370E-01
   1.73457E+00  4.34834E+00  2.71747E+00  5.26750E+00  6.38125E+00  2.41068E+00  2.82017E+00  2.37868E+00  1.16192E+00  2.00517E+00
   9.03550E-01  2.04937E+00 -2.53796E+00 -9.06989E-01  2.74808E+00 -4.22357E+00  2.49761E+00  5.43290E+00  6.01684E-01  2.98426E+00
   6.55893E+00  8.17299E+00  2.65363E+00  4.74663E+00 -8.82804E-02  4.86229E+00  2.55755E+00  3.90302E+00  3.02395E+00  2.94438E+00
   1.57544E+00  1.04394E+00  2.61516E+00  6.56812E+00  1.52422E+00  3.63945E+00  6.79031E+00  5.14010E+00  1.20522E+01  6.26898E+00
   1.26203E+01  1.12882E+01  1.88112E+01  2.60015E+01  3.32822E+01  3.51023E+01  3.98015E+01  4.82643E+01  4.77660E+01  5.56393E+01
   5.48857E+01  5.45961E+01  5.42704E+01  4.59206E+01  4.14553E+01  3.36858E+01  2.95913E+01  2.03378E+01  2.09292E+01  1.45383E+01
   1.17235E+01  7.09518E+00  8.17486E+00  8.59664E+00  6.71871E+00  4.37700E+00  1.55834E+00  3.77828E+00  6.02877E+00  1.87645E+00
   4.32154E+00 -1.60354E+00  4.42438E+00 -1.00949E+00 -1.74148E+00 -7.27275E-01  1.59796E+00  5.17211E-01 -1.32372E+00 -2.23563E+00
   2.63534E+00  4.11090E-01  1.23406E+00 -7.89254E-01 -1.09057E+00  1.24342E+00  2.43756E-01 -1.96273E+00 -5.46677E-01  3.61106E+00
   1.88174E+00  3.44144E-01 -1.97880E-01  1.52804E+00  1.85241E+00  3.66957E+00  2.29537E+00  3.30349E+00  3.73269E+00  4.61195E+00
   2.95205E+00  4.15786E+00  6.51547E+00  6.24029E+00  6.14763E+00  5.46889E+00  7.49029E+00  7.09272E+00  7.58679E+00  7.62694E+00
   1.45363E+01  8.26488E+00  1.03802E+01  1.21245E+01  1.04059E+01  1.06092E+01  1.15265E+01  1.32204E+01  7.55198E+00  1.02353E+01
   1.10821E+01  1.00739E+01  1.02095E+01  1.17190E+01  1.26951E+01  1.40102E+01  1.24608E+01  1.43218E+01  1.25100E+01  1.45104E+01
   1.54319E+01  1.72779E+01  1.03871E+01  1.20687E+01  1.32191E+01  1.32136E+01  1.04427E+01  1.15309E+01  5.95594E+00  6.28310E+00
   3.00317E+00  5.77435E+00  1.59630E+00  8.19310E-01 -1.36268E+00 -4.18790E+00 -4.46146E+00 -3.34134E+00 -7.11269E+00 -8.14936E+00
  -1.05834E+01 -4.40998E+00 -6.33512E+00 -1.20672E+01 -1.00208E+01 -1.16500E+01 -9.97391E+00 -9.26084E+00 -6.81448E+00 -8.56727E+00
  -7.57029E+00 -7.95390E+00 -8.20273E+00 -1.12382E+01 -8.19908E+00 -5.12917E+00 -1.47750E+01 -7.67182E+00 -7.12245E+00 -1.38824E+01
  -1.10162E+01 -1.32812E+01 -1.15126E+01 -1.46539E+01 -1.11906E+01 -1.28278E+01 -1.30487E+01 -5.25842E+00 -1.44919E+01 -1.11989E+01
  -9.76416E+00 -9.34983E+00 -7.41477E+00 -6.00090E+00 -5.23798E+00 -1.77303E+00 -2.26486E+00 -5.47442E+00 -3.17633E+00 -9.12897E+00
  -2.05527E+00 -8.34326E-01 -1.09412E+00  6.82534E-03  1.00831E+00  1.43367E+00  4.55720E+00  1.79404E+00 -9.17139E-01 -1.74242E-02
  -3.51840E-01  2.97673E+00  2.17276E+00  3.85037E+00  2.76423E-01  2.46335E+00  1.72779E+00  1.15443E+00  1.25748E+00  5.29920E+00
  -1.46282E+00 -2.21676E+00  2.61826E-01 -2.82209E+00  1.60796E+00  1.16544E+00 -3.50832E+00 -2.27137E+00 -4.54217E+00  1.09438E-01
  -3.81659E+00 -4.65865E+00 -2.01492E+00 -5.42700E-01 -3.83825E+00 -1.75091E+00 -5.04099E+00 -2.18451E+00 -1.19526E+00 -3.33497E+00
  -4.82396E+00 -3.53499E+00 -4.06995E+00 -2.91079E+00 -1.88961E+00 -3.05634E+00 -2.21180E+00 -4.39572E+00 -2.64198E+00 -1.66396E+00
   7.94473E-01  2.51453E+00 -2.85079E+00 -1.24560E+00 -1.84516E+00 -4.84018E+00 -3.12331E+00  1.71164E+00 -5.48158E+00  1.92742E-01
  -6.14606E-01 -8.70007E-01 -2.76181E+00  1.01894E+00 -1.22662E+00  1.15988E+00  3.94423E+00 -2.29691E+00 -1.69669E+00 -8.28633E-01
  -4.31870E+00 -1.67095E+00  1.28569E-01 -4.29916E+00 -2.96604E+00 -2.39497E+00 -4.96848E+00 -1.35302E+00  1.74529E-01 -1.83441E+00
  -1.05584E+00 -4.08484E+00 -7.18471E-01  8.22299E-01 -3.45349E+00 -1.24846E+00 -2.85181E+00  1.43540E+00  6.26616E-01 -3.68076E+00
  -6.02360E-01 -1.22790E+00  4.31810E+00 -1.31991E-01  1.81104E+00  1.87572E+00 -1.54042E+00 -7.86157E-01
 NY points of the fit to the data follow
  -9.91387E-01 -5.58963E-01 -7.89766E-01 -2.49521E-01 -5.57981E-01  5.64638E-02 -3.41938E-01  2.81897E-01 -1.96431E-01  3.74351E-01
  -1.16819E-01  4.47194E-01 -5.04302E-02  5.09421E-01  5.11233E-02  6.98528E-01  2.83314E-01  1.07323E+00  6.07130E-01  1.51094E+00
   9.06399E-01  1.81238E+00  1.09566E+00  1.91309E+00  1.27302E+00  1.98453E+00  1.66408E+00  2.21156E+00  2.27692E+00  2.59704E+00
   3.00548E+00  3.08694E+00  3.60305E+00  3.39947E+00  3.71949E+00  3.21735E+00  3.21492E+00  2.60637E+00  2.46211E+00  1.92907E+00
   1.90681E+00  1.57203E+00  1.82635E+00  1.68120E+00  1.95847E+00  1.77952E+00  1.88889E+00  1.63295E+00  1.59659E+00  1.28525E+00
   1.24710E+00  1.03148E+00  1.04078E+00  8.54174E-01  8.46095E-01  6.67414E-01  6.44404E-01  5.48319E-01  5.60566E-01  5.16076E-01
   5.45520E-01  5.45798E-01  5.51316E-01  5.78965E-01  5.63398E-01  6.52760E-01  6.37389E-01  7.77815E-01  7.57667E-01  9.06002E-01
   8.89107E-01  1.00827E+00  1.02604E+00  1.09033E+00  1.13946E+00  1.13450E+00  1.22185E+00  1.17905E+00  1.33271E+00  1.27624E+00
   1.46515E+00  1.40768E+00  1.59015E+00  1.53114E+00  1.67838E+00  1.60183E+00  1.64526E+00  1.55479E+00  1.52427E+00  1.50280E+00
   1.44751E+00  1.55919E+00  1.53959E+00  1.92357E+00  2.00331E+00  2.72106E+00  2.81331E+00  3.80836E+00  3.78936E+00  4.90901E+00
   4.67212E+00  5.70994E+00  5.19234E+00  5.94972E+00  5.22797E+00  5.58205E+00  4.72403E+00  4.69926E+00  3.88494E+00  3.65230E+00
   3.01757E+00  2.75920E+00  2.42897E+00  2.33909E+00  2.27691E+00  2.45893E+00  2.65693E+00  3.19365E+00  3.61217E+00  4.59701E+00
   5.11484E+00  6.60186E+00  6.85751E+00  8.57722E+00  8.31671E+00  1.00178E+01  9.08782E+00  1.04654E+01  8.89638E+00  9.73780E+00
   7.81518E+00  8.11332E+00  6.25585E+00  6.17488E+00  4.68343E+00  4.41896E+00  3.37744E+00  3.06846E+00  2.44970E+00  2.17265E+00
   1.78504E+00  1.48834E+00  1.22973E+00  9.18806E-01  9.15799E-01  7.14522E-01  6.78171E-01  4.57887E-01  3.85451E-01  1.55865E-01
   8.27075E-02 -1.43896E-01 -2.16642E-01 -5.00385E-01 -5.60974E-01 -8.91578E-01 -9.34198E-01 -1.25830E+00 -1.30804E+00 -1.59174E+00
  -1.68671E+00 -1.91468E+00 -2.11412E+00 -2.26318E+00 -2.57817E+00 -2.68050E+00 -3.12370E+00 -3.25693E+00 -3.76267E+00 -3.94370E+00
  -4.38540E+00 -4.61854E+00 -4.91482E+00 -5.22819E+00 -5.28351E+00 -5.63092E+00 -5.40476E+00 -5.76742E+00 -5.30689E+00 -5.74078E+00
  -5.05990E+00 -5.46306E+00 -4.60918E+00 -4.87647E+00 -4.02718E+00 -4.14037E+00 -3.41365E+00 -3.31439E+00 -2.82149E+00 -2.46695E+00
  -2.26989E+00 -1.62475E+00 -1.73242E+00 -8.13636E-01 -1.15214E+00  1.99078E-02 -4.63878E-01  9.05441E-01  2.77288E-01  1.54057E+00
   6.66355E-01  1.67332E+00  4.09587E-01  1.07615E+00 -5.92602E-01 -2.01150E-01 -1.88328E+00 -1.50641E+00 -2.76655E+00 -2.24706E+00
  -2.69651E+00 -2.06822E+00 -1.73450E+00 -1.25556E+00 -5.24149E-01 -4.84134E-01  1.16687E-01 -2.77227E-01 -8.57053E-02 -5.58016E-01
  -6.40717E-01 -8.35753E-01 -9.48514E-01 -5.37297E-01 -4.37573E-01  4.23152E-01  6.19949E-01  1.60401E+00  1.45669E+00  2.47127E+00
   2.03028E+00  2.99199E+00  2.38546E+00  3.39008E+00  2.87926E+00  3.74093E+00  3.39110E+00  3.96411E+00  3.86203E+00  3.94123E+00
   4.01898E+00  3.54089E+00  3.95044E+00  3.22955E+00  3.95932E+00  3.56156E+00  5.42142E+00  5.77602E+00  8.60575E+00  9.87064E+00
   1.41003E+01  1.64042E+01  2.25326E+01  2.55361E+01  3.26786E+01  3.57307E+01  4.25889E+01  4.49121E+01  4.99583E+01  5.08829E+01
   5.25139E+01  5.14765E+01  4.90993E+01  4.63547E+01  4.08336E+01  3.72039E+01  3.05672E+01  2.69901E+01  2.09563E+01  1.80224E+01
   1.33396E+01  1.12494E+01  8.16548E+00  6.70003E+00  4.34613E+00  3.17288E+00  1.17968E+00  4.90433E-01  9.91352E-02 -1.78216E-01
  -4.21306E-01 -6.36042E-01 -7.83922E-01 -9.52437E-01 -1.03453E+00 -1.12496E+00 -1.13763E+00 -1.15373E+00 -1.10482E+00 -1.05201E+00
  -9.49513E-01 -8.22188E-01 -6.52927E-01 -4.56400E-01 -2.28251E-01  2.59506E-02  2.99194E-01  5.92005E-01  8.88494E-01  1.19202E+00
   1.48994E+00  1.78049E+00  2.05564E+00  2.31160E+00  2.54626E+00  2.75543E+00  2.94355E+00  3.11117E+00  3.27074E+00  3.42908E+00
   3.61154E+00  3.84348E+00  4.19196E+00  4.69296E+00  5.11724E+00  5.88242E+00  6.38861E+00  7.51668E+00  7.96037E+00  9.38487E+00
   9.32521E+00  1.09135E+01  1.01741E+01  1.16020E+01  1.00926E+01  1.12356E+01  9.19977E+00  1.01871E+01  8.31795E+00  9.31359E+00
   8.31966E+00  9.48990E+00  9.74530E+00  1.11145E+01  1.24276E+01  1.36117E+01  1.52814E+01  1.57138E+01  1.69686E+01  1.63671E+01
   1.66454E+01  1.50857E+01  1.45038E+01  1.24977E+01  1.15638E+01  9.68617E+00  8.35061E+00  6.56879E+00  5.22555E+00  3.60194E+00
   2.31694E+00  7.92499E-01 -4.55992E-01 -1.47542E+00 -2.33558E+00 -3.06735E+00 -3.68948E+00 -4.21646E+00 -4.66064E+00 -5.03296E+00
  -5.34352E+00 -5.60110E+00 -5.81396E+00 -5.98889E+00 -6.13237E+00 -6.24929E+00 -6.34454E+00 -6.42133E+00 -6.48324E+00 -6.53214E+00
  -6.57065E+00 -6.59961E+00 -6.62097E+00 -6.63482E+00 -6.64267E+00 -6.64406E+00 -6.64024E+00 -6.63030E+00 -6.61528E+00 -6.59389E+00
  -6.56699E+00 -6.53290E+00 -6.49226E+00 -6.44292E+00 -6.38519E+00 -6.31638E+00 -6.23640E+00 -6.14190E+00 -6.03229E+00 -5.90349E+00
  -5.75442E+00 -5.58040E+00 -5.38008E+00 -5.14850E+00 -4.88452E+00 -4.58360E+00 -4.24565E+00 -3.86759E+00 -3.45153E+00 -2.99699E+00
  -2.50939E+00 -1.99184E+00 -1.45384E+00 -9.02457E-01 -3.51093E-01  1.89977E-01  7.04752E-01  1.18163E+00  1.60441E+00  1.96289E+00
   2.24357E+00  2.44060E+00  2.54578E+00  2.55963E+00  2.48064E+00  2.31624E+00  2.07130E+00  1.75902E+00  1.38871E+00  9.76857E-01
   5.34409E-01  7.81708E-02 -3.82061E-01 -8.31658E-01 -1.26403E+00 -1.66821E+00 -2.04169E+00 -2.37743E+00 -2.67678E+00 -2.93598E+00
  -3.15931E+00 -3.34522E+00 -3.49973E+00 -3.62232E+00 -3.71972E+00 -3.79154E+00 -3.84451E+00 -3.87783E+00 -3.89784E+00 -3.90307E+00
  -3.89937E+00 -3.88459E+00 -3.86410E+00 -3.83520E+00 -3.80289E+00 -3.76398E+00 -3.72324E+00 -3.67714E+00 -3.63031E+00 -3.57896E+00
  -3.52764E+00 -3.47236E+00 -3.41766E+00 -3.35940E+00 -3.30209E+00 -3.24149E+00 -3.18211E+00 -3.11960E+00 -3.05852E+00 -2.99445E+00
  -2.93198E+00 -2.86660E+00 -2.80296E+00 -2.73646E+00 -2.67182E+00 -2.60437E+00 -2.53888E+00 -2.47061E+00 -2.40439E+00 -2.33539E+00
  -2.26852E+00 -2.19889E+00 -2.13147E+00 -2.06128E+00 -1.99336E+00 -1.92267E+00 -1.85431E+00 -1.78317E+00 -1.71442E+00 -1.64288E+00
  -1.57378E+00 -1.50187E+00 -1.43245E+00 -1.36022E+00 -1.29052E+00 -1.21797E+00 -1.14800E+00 -1.07517E+00 -1.00496E+00 -9.31866E-01
  -8.61426E-01 -7.88061E-01 -7.17389E-01 -6.43764E-01 -5.72862E-01 -4.98963E-01 -4.27800E-01 -3.53586E-01
 NY background values follow
    -2.929E+00   -2.901E+00   -2.872E+00   -2.844E+00   -2.816E+00   -2.787E+00   -2.759E+00   -2.730E+00   -2.702E+00   -2.673E+00
    -2.645E+00   -2.617E+00   -2.588E+00   -2.560E+00   -2.531E+00   -2.503E+00   -2.475E+00   -2.446E+00   -2.418E+00   -2.390E+00
    -2.362E+00   -2.333E+00   -2.305E+00   -2.277E+00   -2.249E+00   -2.221E+00   -2.194E+00   -2.166E+00   -2.138E+00   -2.111E+00
    -2.083E+00   -2.056E+00   -2.028E+00   -2.001E+00   -1.974E+00   -1.947E+00   -1.920E+00   -1.894E+00   -1.867E+00   -1.841E+00
    -1.814E+00   -1.788E+00   -1.762E+00   -1.737E+00   -1.711E+00   -1.685E+00   -1.660E+00   -1.635E+00   -1.610E+00   -1.585E+00
    -1.560E+00   -1.536E+00   -1.512E+00   -1.488E+00   -1.464E+00   -1.440E+00   -1.417E+00   -1.394E+00   -1.371E+00   -1.348E+00
    -1.326E+00   -1.303E+00   -1.281E+00   -1.260E+00   -1.238E+00   -1.217E+00   -1.196E+00   -1.176E+00   -1.155E+00   -1.135E+00
    -1.115E+00   -1.096E+00   -1.077E+00   -1.058E+00   -1.039E+00   -1.021E+00   -1.003E+00   -9.854E-01   -9.681E-01   -9.512E-01
    -9.346E-01   -9.183E-01   -9.024E-01   -8.869E-01   -8.717E-01   -8.569E-01   -8.424E-01   -8.284E-01   -8.147E-01   -8.014E-01
    -7.885E-01   -7.760E-01   -7.639E-01   -7.522E-01   -7.409E-01   -7.300E-01   -7.195E-01   -7.095E-01   -6.998E-01   -6.906E-01
    -6.818E-01   -6.734E-01   -6.655E-01   -6.580E-01   -6.509E-01   -6.442E-01   -6.380E-01   -6.323E-01   -6.270E-01   -6.221E-01
    -6.177E-01   -6.137E-01   -6.102E-01   -6.071E-01   -6.045E-01   -6.024E-01   -6.008E-01   -5.996E-01   -5.988E-01   -5.986E-01
    -5.988E-01   -5.995E-01   -6.007E-01   -6.024E-01   -6.046E-01   -6.073E-01   -6.104E-01   -6.141E-01   -6.182E-01   -6.229E-01
    -6.280E-01   -6.337E-01   -6.399E-01   -6.466E-01   -6.538E-01   -6.615E-01   -6.697E-01   -6.785E-01   -6.878E-01   -6.976E-01
    -7.079E-01   -7.187E-01   -7.299E-01   -7.417E-01   -7.540E-01   -7.667E-01   -7.799E-01   -7.936E-01   -8.077E-01   -8.223E-01
    -8.373E-01   -8.528E-01   -8.687E-01   -8.851E-01   -9.019E-01   -9.191E-01   -9.367E-01   -9.547E-01   -9.732E-01   -9.920E-01
    -1.011E+00   -1.031E+00   -1.051E+00   -1.071E+00   -1.092E+00   -1.113E+00   -1.135E+00   -1.157E+00   -1.179E+00   -1.201E+00
    -1.224E+00   -1.247E+00   -1.271E+00   -1.295E+00   -1.319E+00   -1.344E+00   -1.368E+00   -1.394E+00   -1.419E+00   -1.445E+00
    -1.471E+00   -1.497E+00   -1.524E+00   -1.550E+00   -1.578E+00   -1.605E+00   -1.633E+00   -1.661E+00   -1.689E+00   -1.717E+00
    -1.746E+00   -1.775E+00   -1.805E+00   -1.834E+00   -1.864E+00   -1.894E+00   -1.925E+00   -1.956E+00   -1.987E+00   -2.018E+00
    -2.050E+00   -2.081E+00   -2.114E+00   -2.146E+00   -2.179E+00   -2.212E+00   -2.245E+00   -2.279E+00   -2.312E+00   -2.346E+00
    -2.381E+00   -2.416E+00   -2.450E+00   -2.486E+00   -2.521E+00   -2.557E+00   -2.593E+00   -2.629E+00   -2.666E+00   -2.703E+00
    -2.740E+00   -2.778E+00   -2.815E+00   -2.853E+00   -2.892E+00   -2.930E+00   -2.969E+00   -3.008E+00   -3.048E+00   -3.087E+00
    -3.127E+00   -3.167E+00   -3.208E+00   -3.249E+00   -3.289E+00   -3.331E+00   -3.372E+00   -3.414E+00   -3.455E+00   -3.497E+00
    -3.540E+00   -3.582E+00   -3.625E+00   -3.668E+00   -3.711E+00   -3.754E+00   -3.797E+00   -3.840E+00   -3.884E+00   -3.928E+00
    -3.972E+00   -4.016E+00   -4.060E+00   -4.104E+00   -4.149E+00   -4.193E+00   -4.238E+00   -4.283E+00   -4.328E+00   -4.372E+00
    -4.417E+00   -4.463E+00   -4.508E+00   -4.553E+00   -4.598E+00   -4.643E+00   -4.689E+00   -4.734E+00   -4.780E+00   -4.825E+00
    -4.871E+00   -4.916E+00   -4.962E+00   -5.007E+00   -5.053E+00   -5.098E+00   -5.144E+00   -5.189E+00   -5.234E+00   -5.280E+00
    -5.325E+00   -5.370E+00   -5.415E+00   -5.460E+00   -5.505E+00   -5.550E+00   -5.595E+00   -5.640E+00   -5.684E+00   -5.729E+00
    -5.773E+00   -5.817E+00   -5.861E+00   -5.904E+00   -5.948E+00   -5.991E+00   -6.035E+00   -6.078E+00   -6.120E+00   -6.163E+00
    -6.205E+00   -6.247E+00   -6.289E+00   -6.331E+00   -6.372E+00   -6.413E+00   -6.454E+00   -6.494E+00   -6.535E+00   -6.574E+00
    -6.614E+00   -6.653E+00   -6.692E+00   -6.731E+00   -6.769E+00   -6.807E+00   -6.844E+00   -6.882E+00   -6.918E+00   -6.955E+00
    -6.991E+00   -7.026E+00   -7.061E+00   -7.096E+00   -7.130E+00   -7.163E+00   -7.196E+00   -7.229E+00   -7.260E+00   -7.292E+00
    -7.322E+00   -7.352E+00   -7.382E+00   -7.410E+00   -7.438E+00   -7.466E+00   -7.492E+00   -7.518E+00   -7.543E+00   -7.568E+00
    -7.591E+00   -7.614E+00   -7.636E+00   -7.657E+00   -7.677E+00   -7.696E+00   -7.715E+00   -7.732E+00   -7.749E+00   -7.764E+00
    -7.779E+00   -7.793E+00   -7.805E+00   -7.817E+00   -7.827E+00   -7.837E+00   -7.845E+00   -7.852E+00   -7.859E+00   -7.864E+00
    -7.867E+00   -7.870E+00   -7.872E+00   -7.872E+00   -7.871E+00   -7.869E+00   -7.866E+00   -7.861E+00   -7.855E+00   -7.848E+00
    -7.840E+00   -7.831E+00   -7.821E+00   -7.809E+00   -7.797E+00   -7.783E+00   -7.768E+00   -7.752E+00   -7.735E+00   -7.716E+00
    -7.697E+00   -7.676E+00   -7.655E+00   -7.632E+00   -7.608E+00   -7.583E+00   -7.557E+00   -7.530E+00   -7.501E+00   -7.472E+00
    -7.442E+00   -7.410E+00   -7.377E+00   -7.344E+00   -7.309E+00   -7.273E+00   -7.236E+00   -7.199E+00   -7.160E+00   -7.120E+00
    -7.079E+00   -7.037E+00   -6.994E+00   -6.950E+00   -6.905E+00   -6.859E+00   -6.812E+00   -6.764E+00   -6.715E+00   -6.665E+00
    -6.614E+00   -6.562E+00   -6.509E+00   -6.455E+00   -6.401E+00   -6.345E+00   -6.289E+00   -6.232E+00   -6.174E+00   -6.116E+00
    -6.056E+00   -5.996E+00   -5.936E+00   -5.874E+00   -5.812E+00   -5.749E+00   -5.686E+00   -5.622E+00   -5.557E+00   -5.492E+00
    -5.426E+00   -5.360E+00   -5.293E+00   -5.226E+00   -5.159E+00   -5.090E+00   -5.022E+00   -4.953E+00   -4.883E+00   -4.814E+00
    -4.744E+00   -4.673E+00   -4.602E+00   -4.531E+00   -4.460E+00   -4.389E+00   -4.317E+00   -4.245E+00   -4.173E+00   -4.101E+00
    -4.028E+00   -3.955E+00   -3.883E+00   -3.810E+00   -3.737E+00   -3.664E+00   -3.591E+00   -3.518E+00   -3.445E+00   -3.371E+00
    -3.298E+00   -3.225E+00   -3.151E+00   -3.078E+00   -3.004E+00   -2.930E+00   -2.856E+00   -2.783E+00   -2.709E+00   -2.635E+00
    -2.561E+00   -2.487E+00   -2.412E+00   -2.338E+00   -2.264E+00   -2.190E+00   -2.116E+00   -2.041E+00   -1.967E+00   -1.892E+00
    -1.818E+00   -1.744E+00   -1.669E+00   -1.595E+00   -1.520E+00   -1.445E+00   -1.371E+00   -1.296E+00   -1.222E+00   -1.147E+00
    -1.072E+00   -9.978E-01   -9.231E-01   -8.485E-01   -7.738E-01   -6.992E-01   -6.245E-01   -5.499E-01
 Ala      Conc. = 1.68E+03
