 LCModel (Version 6.3-1L) Copyright: S.W. Provencher.          Ref.: Magn. Reson. Med. 30:672-679 (1993).                
 Slice#1 Row#3 Col#6  K_02_press_1_raw_act
 36 lines in following concentration table = NCONC+1
    Conc.  %SD /Cr+PCr  Metabolite                                         
  321.508  47%   0.315 Ala                                                 
    0.000 999%   0.000 Asp                                                 
  556.931  47%   0.546 Cr                                                  
  462.609  58%   0.454 PCr                                                 
    0.000 999%   0.000 GABA                                                
   10.722 999% 1.1E-02 Glc                                                 
    0.000 999%   0.000 Gln                                                 
  662.622  51%   0.650 Glu                                                 
  404.470   6%   0.397 GPC                                                 
    0.000 999%   0.000 PCh                                                 
  262.509  36%   0.257 GSH                                                 
 1.18E+03  27%   1.156 Ins                                                 
  768.780  35%   0.754 Lac                                                 
 1.58E+03   8%   1.548 NAA                                                 
  238.686  58%   0.234 NAAG                                                
   31.889  93% 3.1E-02 Scyllo                                              
    0.000 999%   0.000 Tau                                                 
  495.518  28%   0.486 -CrCH2                                              
  404.470   6%   0.397 GPC+PCh                                             
 1.82E+03   6%   1.782 NAA+NAAG                                            
 1.02E+03   7%   1.000 Cr+PCr                                              
  662.622  51%   0.650 Glu+Gln                                             
 1.51E+03  48%   1.478 Lip13a                                              
 1.82E+03  17%   1.783 Lip13b                                              
    0.000 999%   0.000 Lip09                                               
 2.74E+03  11%   2.690 MM09                                                
 1.44E+03  25%   1.411 Lip20                                               
 5.11E+03  11%   5.011 MM20                                                
 1.34E+03  25%   1.314 MM12                                                
    0.000 999%   0.000 MM14                                                
 1.64E+03  19%   1.613 MM17                                                
 3.32E+03  17%   3.261 Lip13a+Lip13b                                       
 4.66E+03  10%   4.575 MM14+Lip13a+Lip13b+MM12                             
 2.74E+03  11%   2.690 MM09+Lip09                                          
 6.55E+03   8%   6.422 MM20+Lip20                                          
   6 lines in following misc. output table
  FWHM = 0.061 ppm    S/N =   9                                            
  Data shift = 0.015 ppm                                                   
  Ph:  33 deg      19.2 deg/ppm                                            
  alphaB,S = 6.4E-01,   1.8E+02                                            
   14 spline knots.   Ns = 7(1)                                            
  (10) 2 infls.   ( 5) 1 extrs.                                            
  498 points on ppm-axis = NY
      4.000000     3.992357     3.984714     3.977070     3.969427     3.961784     3.954141     3.946497     3.938854     3.931211
      3.923568     3.915925     3.908281     3.900638     3.892995     3.885352     3.877708     3.870065     3.862422     3.854779
      3.847136     3.839492     3.831849     3.824206     3.816563     3.808919     3.801276     3.793633     3.785990     3.778347
      3.770703     3.763060     3.755417     3.747774     3.740130     3.732487     3.724844     3.717201     3.709558     3.701914
      3.694271     3.686628     3.678985     3.671341     3.663698     3.656055     3.648412     3.640769     3.633125     3.625482
      3.617839     3.610196     3.602552     3.594909     3.587266     3.579623     3.571980     3.564336     3.556693     3.549050
      3.541407     3.533763     3.526120     3.518477     3.510834     3.503191     3.495547     3.487904     3.480261     3.472618
      3.464974     3.457331     3.449688     3.442045     3.434402     3.426758     3.419115     3.411472     3.403829     3.396185
      3.388542     3.380899     3.373256     3.365613     3.357969     3.350326     3.342683     3.335040     3.327396     3.319753
      3.312110     3.304467     3.296824     3.289180     3.281537     3.273894     3.266251     3.258607     3.250964     3.243321
      3.235678     3.228034     3.220391     3.212748     3.205105     3.197462     3.189818     3.182175     3.174532     3.166889
      3.159245     3.151602     3.143959     3.136316     3.128673     3.121029     3.113386     3.105743     3.098100     3.090456
      3.082813     3.075170     3.067527     3.059884     3.052240     3.044597     3.036954     3.029311     3.021667     3.014024
      3.006381     2.998738     2.991095     2.983451     2.975808     2.968165     2.960522     2.952878     2.945235     2.937592
      2.929949     2.922306     2.914662     2.907019     2.899376     2.891733     2.884089     2.876446     2.868803     2.861160
      2.853517     2.845873     2.838230     2.830587     2.822944     2.815300     2.807657     2.800014     2.792371     2.784728
      2.777084     2.769441     2.761798     2.754155     2.746511     2.738868     2.731225     2.723582     2.715939     2.708295
      2.700652     2.693009     2.685366     2.677722     2.670079     2.662436     2.654793     2.647150     2.639506     2.631863
      2.624220     2.616577     2.608933     2.601290     2.593647     2.586004     2.578361     2.570717     2.563074     2.555431
      2.547788     2.540144     2.532501     2.524858     2.517215     2.509572     2.501928     2.494285     2.486642     2.478999
      2.471355     2.463712     2.456069     2.448426     2.440783     2.433139     2.425496     2.417853     2.410210     2.402566
      2.394923     2.387280     2.379637     2.371994     2.364350     2.356707     2.349064     2.341421     2.333777     2.326134
      2.318491     2.310848     2.303205     2.295561     2.287918     2.280275     2.272632     2.264988     2.257345     2.249702
      2.242059     2.234416     2.226772     2.219129     2.211486     2.203843     2.196199     2.188556     2.180913     2.173270
      2.165627     2.157983     2.150340     2.142697     2.135054     2.127410     2.119767     2.112124     2.104481     2.096838
      2.089194     2.081551     2.073908     2.066265     2.058621     2.050978     2.043335     2.035692     2.028049     2.020405
      2.012762     2.005119     1.997476     1.989833     1.982190     1.974546     1.966903     1.959260     1.951617     1.943974
      1.936331     1.928688     1.921045     1.913402     1.905759     1.898115     1.890472     1.882829     1.875186     1.867543
      1.859900     1.852257     1.844614     1.836971     1.829327     1.821684     1.814041     1.806398     1.798755     1.791112
      1.783469     1.775826     1.768183     1.760540     1.752896     1.745253     1.737610     1.729967     1.722324     1.714681
      1.707038     1.699395     1.691752     1.684108     1.676465     1.668822     1.661179     1.653536     1.645893     1.638250
      1.630607     1.622964     1.615321     1.607677     1.600034     1.592391     1.584748     1.577105     1.569462     1.561819
      1.554176     1.546533     1.538890     1.531246     1.523603     1.515960     1.508317     1.500674     1.493031     1.485388
      1.477745     1.470102     1.462458     1.454815     1.447172     1.439529     1.431886     1.424243     1.416600     1.408957
      1.401314     1.393671     1.386027     1.378384     1.370741     1.363098     1.355455     1.347812     1.340169     1.332526
      1.324883     1.317240     1.309596     1.301953     1.294310     1.286667     1.279024     1.271381     1.263738     1.256095
      1.248452     1.240808     1.233165     1.225522     1.217879     1.210236     1.202593     1.194950     1.187307     1.179664
      1.172021     1.164377     1.156734     1.149091     1.141448     1.133805     1.126162     1.118519     1.110876     1.103233
      1.095590     1.087946     1.080303     1.072660     1.065017     1.057374     1.049731     1.042088     1.034445     1.026802
      1.019158     1.011515     1.003872     0.996229     0.988586     0.980943     0.973300     0.965657     0.958014     0.950371
      0.942727     0.935084     0.927441     0.919798     0.912155     0.904512     0.896869     0.889226     0.881583     0.873940
      0.866296     0.858653     0.851010     0.843367     0.835724     0.828081     0.820438     0.812795     0.805152     0.797508
      0.789865     0.782222     0.774579     0.766936     0.759293     0.751650     0.744007     0.736364     0.728721     0.721077
      0.713434     0.705791     0.698148     0.690505     0.682862     0.675219     0.667576     0.659933     0.652290     0.644646
      0.637003     0.629360     0.621717     0.614074     0.606431     0.598788     0.591145     0.583502     0.575858     0.568215
      0.560572     0.552929     0.545286     0.537643     0.530000     0.522357     0.514714     0.507071     0.499427     0.491784
      0.484141     0.476498     0.468855     0.461212     0.453569     0.445925     0.438282     0.430639     0.422996     0.415353
      0.407710     0.400067     0.392424     0.384780     0.377137     0.369494     0.361851     0.354208     0.346565     0.338922
      0.331278     0.323635     0.315992     0.308349     0.300706     0.293063     0.285420     0.277777     0.270133     0.262490
      0.254847     0.247204     0.239561     0.231918     0.224275     0.216631     0.208988     0.201345
 NY phased data points follow
   8.29314E+00  1.04194E+01  7.79129E+00  8.78590E+00  1.08641E+01  9.64772E+00  1.45264E+01  1.62036E+01  1.39638E+01  2.08763E+01
   2.17089E+01  2.31393E+01  2.26056E+01  2.44548E+01  2.26821E+01  2.28339E+01  1.96132E+01  1.19260E+01  1.89923E+01  7.76287E+00
   1.81542E+01  1.63923E+01  1.11150E+01  1.33953E+01  1.22261E+01  1.45985E+01  1.23465E+01  1.06968E+01  7.22346E+00  1.58534E+01
   1.51692E+01  1.54084E+01  1.66782E+01  1.44351E+01  1.31403E+01  1.23899E+01  1.32925E+01  1.43029E+01  1.59766E+01  1.81290E+01
   1.41859E+01  1.54663E+01  1.40189E+01  1.14771E+01  1.48006E+01  1.74486E+01  2.14723E+01  1.90927E+01  1.68022E+01  1.83659E+01
   2.09629E+01  1.79491E+01  1.35999E+01  1.12105E+01  1.32075E+01  1.05434E+01  1.61042E+01  9.63920E+00  8.46546E+00  1.13249E+01
   1.03877E+01  1.03192E+01  1.29211E+01  4.19230E+00  9.53111E+00  7.58973E+00  4.51754E+00  9.17103E+00  4.96184E+00  3.85853E+00
   5.91253E+00  2.51291E+00  6.16682E+00  7.58578E+00  4.20741E+00  5.13644E+00  4.44944E+00  1.33505E+01  7.80574E+00  1.00325E+01
   3.68744E+00  2.22686E+00  3.75723E+00  3.36197E+00  4.42639E+00  5.75396E+00  2.99623E+00  6.05338E+00  5.84073E+00  8.74120E+00
   1.36945E+00  4.35768E+00 -1.43165E+00  4.16408E+00  3.70295E+00  1.41723E+00  4.18080E+00  8.33163E+00  4.47396E+00  1.15115E+01
   1.71355E+01  2.75002E+01  3.47712E+01  3.38491E+01  3.68557E+01  3.25123E+01  2.74488E+01  2.71011E+01  2.55054E+01  1.86292E+01
   1.82480E+01  1.73101E+01  1.30608E+01  7.59995E+00  1.11217E+01  7.11011E+00  5.43108E+00  6.92201E+00  3.96515E+00  9.82234E+00
   8.44154E+00  8.01067E+00  7.48341E+00  9.89445E+00  2.18339E+01  2.99051E+01  3.35272E+01  3.60936E+01  3.49925E+01  3.15997E+01
   3.14833E+01  2.36667E+01  2.07366E+01  2.29036E+01  1.28018E+01  1.70743E+01  1.01704E+01  8.22305E+00  5.06119E+00  7.54637E+00
   7.47240E+00  5.30677E+00  6.41175E+00  7.23652E+00  4.79124E+00  4.94690E+00  4.39519E+00  1.94801E+00  2.40760E+00  5.31574E+00
   3.66234E+00  8.44148E+00  5.56292E+00  3.02587E+00  8.30846E+00  6.55115E+00  4.55198E+00  4.94280E+00  1.13219E+00  5.86714E+00
   4.69752E+00  4.50981E-01 -1.52093E+00  6.58700E+00  7.85441E-01  1.09755E-01 -2.34442E+00 -8.95470E-01 -1.62164E-01 -1.43962E+00
  -1.36193E+00 -6.09487E+00 -6.75069E+00 -7.88496E+00 -1.24975E+01 -1.10406E+01 -1.05390E+01 -6.46380E+00 -8.42233E+00 -1.20297E+01
  -1.19978E+01 -1.29334E+01 -3.71679E+00 -3.83020E+00 -2.49759E+00 -6.82944E+00 -7.33116E+00 -4.08630E+00 -4.29350E+00 -4.78681E+00
  -6.26364E+00 -1.74126E+00 -3.79794E+00 -8.16098E+00 -6.91482E+00 -7.85049E+00 -5.26972E+00 -1.13986E+01 -3.55392E+00 -7.60358E+00
  -6.63761E+00 -5.23169E+00 -1.36779E+00 -5.75502E+00 -5.93863E+00 -4.96898E+00  2.36423E+00 -3.61777E+00 -1.99409E+00 -2.95595E+00
   3.80952E+00 -4.21644E-02 -5.20501E-01  2.69710E+00  4.94359E+00  1.86060E+00  1.33068E+00 -1.13577E+00 -2.73703E-01 -3.96219E+00
  -1.27297E+00 -3.41097E+00 -1.31740E+00  1.24648E+00  3.53957E+00  4.32901E+00  9.50077E+00  6.77651E+00  8.36256E-01  5.13261E+00
   7.51939E+00  6.39699E+00  4.22807E+00  6.78849E+00  2.44977E+00  4.18814E+00 -1.65834E+00  4.48423E+00  2.32624E+00  4.39101E+00
   9.92848E-01  3.95563E+00  6.76981E+00  5.19121E+00  7.82919E+00  8.30645E+00  8.48090E+00  1.14800E+01  1.32196E+01  1.68376E+01
   1.38105E+01  1.80158E+01  2.47367E+01  2.23165E+01  2.69475E+01  3.35900E+01  3.88402E+01  5.32506E+01  6.50673E+01  6.73322E+01
   5.98688E+01  5.46482E+01  4.90559E+01  4.11984E+01  3.82765E+01  2.49766E+01  1.46146E+01  1.18314E+01  6.43483E+00  5.77749E+00
  -4.87768E-01  1.24988E-01 -3.10412E+00 -7.92607E-01 -9.33584E-01 -1.90939E+00 -1.06624E+00 -3.05647E-01 -2.16320E+00 -3.26786E+00
   1.69773E-02 -1.75448E+00  1.58661E+00 -2.57713E+00  1.11027E+00  1.01190E+00 -1.29092E+00 -5.36337E+00  2.97919E+00  4.26471E+00
   2.96944E+00 -3.14391E-01  4.29455E+00  1.93335E+00  5.50521E+00  2.87600E+00  2.02965E+00 -1.88648E+00 -3.03505E+00 -7.08249E+00
  -1.77449E+00 -2.00593E+00 -3.88107E+00  2.34345E+00  1.25313E+00 -2.83767E+00 -2.47002E+00  1.09775E+00 -2.46551E+00 -5.80247E+00
  -3.07752E+00 -8.82644E+00 -1.06710E+01 -5.61997E+00 -1.14859E+01 -1.24755E+01 -1.35420E+01 -1.07019E+01 -2.13285E+01 -1.82310E+01
  -1.51683E+01 -1.91480E+01 -1.96821E+01 -2.42522E+01 -1.78897E+01 -2.14589E+01 -2.92761E+01 -2.28876E+01 -2.61209E+01 -2.38147E+01
  -2.33614E+01 -1.60004E+01 -1.33184E+01 -1.23707E+01 -1.23659E+01 -9.63501E+00 -4.25608E+00 -1.53422E+00 -1.05114E+00  1.25655E+00
   4.23042E+00  5.98809E+00  8.27140E+00  1.63122E+01  1.16896E+01  1.59157E+01  1.78300E+01  2.31230E+01  1.48114E+01  1.14432E+01
   1.77824E+01  2.02300E+01  2.02173E+01  1.89284E+01  1.61981E+01  1.47711E+01  1.26631E+01  7.52101E+00  8.34302E+00  1.07991E+01
   9.40272E+00  1.12390E+01  1.23796E+01  6.76341E+00  6.67746E+00  8.93188E+00  7.37530E+00  3.18443E+00  3.07243E+00 -1.68067E-01
  -6.97037E-01  3.99763E+00 -1.17190E+00 -1.27714E+00  7.16439E+00  5.65315E+00  5.20750E+00  3.92561E+00  1.67593E+00  1.64838E+00
   9.47616E-01  1.11670E+00  5.63949E+00 -1.50573E+00 -1.62368E+00  4.28141E+00  4.06006E+00  3.31948E+00  3.83649E+00 -2.75966E-01
   3.48025E+00  4.19251E+00  3.11574E+00  6.36415E+00  2.84759E+00  3.25758E+00  4.94574E+00  6.80322E+00  5.66434E+00  9.02954E+00
   7.92567E+00  4.71984E+00  3.00552E+00  5.54945E+00  6.11282E+00  8.35045E+00  5.31458E+00  5.04762E+00  8.24052E+00  6.14633E+00
   4.81514E+00 -1.03216E+00  2.57002E-01  1.88924E+00 -3.24525E+00 -2.09646E+00 -4.44829E-01 -1.77758E+00 -4.56978E-01 -2.14397E+00
  -2.66461E+00 -3.85428E+00 -8.20670E+00 -9.66337E+00 -5.82510E+00  6.90101E-01 -2.23340E+00 -2.02210E+00 -3.84673E+00 -2.63220E+00
  -5.49317E+00 -5.80280E+00 -1.99794E+00 -1.76839E+00 -3.13336E+00 -7.53786E+00 -3.98112E+00 -3.31821E+00 -2.00576E+00 -3.10260E+00
  -6.30961E+00 -1.04304E-01 -1.88857E+00 -4.51185E+00 -3.94590E+00 -4.90678E+00 -3.47935E+00  1.26620E-01 -6.52189E-01 -4.28765E+00
  -3.79620E+00  1.47231E+00 -5.86990E+00 -7.69236E+00 -1.31105E-01 -2.47907E+00 -5.07461E+00 -1.09112E+00 -5.68127E+00 -7.12584E+00
  -1.09966E+00 -6.14789E+00 -6.32165E+00 -4.23507E+00 -4.24186E+00 -3.60181E+00 -1.81048E-01 -4.68825E+00 -5.77014E+00 -2.44876E+00
  -7.00233E+00 -3.85117E-01 -3.58670E+00 -9.66422E-01 -2.01458E+00 -9.95250E+00 -6.06540E+00 -5.35512E+00 -5.76231E+00  3.09268E-01
  -3.29524E+00 -3.55334E+00 -3.72144E+00 -9.81971E+00 -3.19047E+00  3.68523E-01 -8.69086E+00 -2.16369E+00 -6.79506E+00 -2.62071E+00
  -4.99226E+00 -3.02577E+00 -9.18406E-01  2.71697E-01 -2.58314E+00 -5.62128E+00 -5.36745E+00 -7.26860E-01
 NY points of the fit to the data follow
   1.31907E+01  1.24374E+01  1.17091E+01  1.11002E+01  1.07549E+01  1.10993E+01  1.24125E+01  1.46436E+01  1.74815E+01  2.03220E+01
   2.25100E+01  2.36778E+01  2.38573E+01  2.33341E+01  2.24218E+01  2.13130E+01  2.00630E+01  1.86050E+01  1.69315E+01  1.54357E+01
   1.41975E+01  1.33095E+01  1.26293E+01  1.20831E+01  1.17898E+01  1.18678E+01  1.23999E+01  1.33197E+01  1.43706E+01  1.52559E+01
   1.58054E+01  1.59983E+01  1.58892E+01  1.55488E+01  1.50403E+01  1.43834E+01  1.35694E+01  1.26362E+01  1.17313E+01  1.10674E+01
   1.07880E+01  1.10546E+01  1.19477E+01  1.33128E+01  1.48475E+01  1.61746E+01  1.69590E+01  1.70417E+01  1.64794E+01  1.55178E+01
   1.44117E+01  1.32524E+01  1.21230E+01  1.11494E+01  1.03965E+01  9.92311E+00  9.86158E+00  1.01977E+01  1.06059E+01  1.07678E+01
   1.06121E+01  1.02092E+01  9.66916E+00  9.11434E+00  8.63176E+00  8.29775E+00  8.11802E+00  8.05030E+00  8.09305E+00  8.23550E+00
   8.40634E+00  8.53790E+00  8.56540E+00  8.47617E+00  8.29113E+00  8.03773E+00  7.74947E+00  7.45249E+00  7.16763E+00  6.93903E+00
   6.77858E+00  6.66740E+00  6.51801E+00  6.23612E+00  5.77024E+00  5.14556E+00  4.46888E+00  3.87994E+00  3.47872E+00  3.29381E+00
   3.29324E+00  3.39330E+00  3.50813E+00  3.57340E+00  3.56965E+00  3.54768E+00  3.69117E+00  4.87405E+00  7.96298E+00  1.30223E+01
   1.96053E+01  2.65772E+01  3.23571E+01  3.56829E+01  3.62197E+01  3.45406E+01  3.15540E+01  2.79204E+01  2.39408E+01  1.97435E+01
   1.54670E+01  1.13274E+01  7.82036E+00  5.80170E+00  5.09957E+00  4.79536E+00  4.61510E+00  4.50481E+00  4.46822E+00  4.57214E+00
   5.20984E+00  7.28167E+00  1.10972E+01  1.64488E+01  2.26595E+01  2.85167E+01  3.27310E+01  3.45970E+01  3.42266E+01  3.22696E+01
   2.94033E+01  2.59915E+01  2.21618E+01  1.80585E+01  1.39206E+01  1.01404E+01  7.39760E+00  6.21846E+00  5.86458E+00  5.74027E+00
   5.66947E+00  5.59437E+00  5.52128E+00  5.46045E+00  5.37192E+00  5.22585E+00  5.02015E+00  4.75221E+00  4.43786E+00  4.11399E+00
   3.80675E+00  3.55158E+00  3.35190E+00  3.19120E+00  3.00895E+00  2.75692E+00  2.41113E+00  1.99365E+00  1.59368E+00  1.27521E+00
   1.05929E+00  9.09754E-01  7.34185E-01  4.38243E-01  5.14530E-04 -5.20894E-01 -1.05036E+00 -1.53838E+00 -1.99125E+00 -2.49468E+00
  -3.11674E+00 -3.79199E+00 -4.42854E+00 -4.93011E+00 -5.25765E+00 -5.47689E+00 -5.66098E+00 -5.85347E+00 -6.06628E+00 -6.27934E+00
  -6.47512E+00 -6.62740E+00 -6.71844E+00 -6.72035E+00 -6.58089E+00 -6.25002E+00 -5.68635E+00 -4.93102E+00 -4.13549E+00 -3.44764E+00
  -2.96705E+00 -2.72412E+00 -2.68225E+00 -2.79097E+00 -3.03387E+00 -3.39233E+00 -3.78931E+00 -4.06008E+00 -4.12314E+00 -3.98285E+00
  -3.69818E+00 -3.35685E+00 -3.08256E+00 -2.97904E+00 -3.06517E+00 -3.30923E+00 -3.69460E+00 -4.18586E+00 -4.61812E+00 -4.79650E+00
  -4.65839E+00 -4.20967E+00 -3.52620E+00 -2.78795E+00 -2.25863E+00 -2.12531E+00 -2.40866E+00 -2.94760E+00 -3.55179E+00 -4.02642E+00
  -4.19067E+00 -3.98278E+00 -3.45552E+00 -2.66742E+00 -1.71252E+00 -7.04677E-01  1.95479E-01  9.38174E-01  1.54789E+00  2.08174E+00
   2.58483E+00  3.08375E+00  3.61550E+00  4.17780E+00  4.68805E+00  5.04611E+00  5.21967E+00  5.25984E+00  5.29314E+00  5.45718E+00
   5.83178E+00  6.45521E+00  7.31354E+00  8.32033E+00  9.36422E+00  1.03593E+01  1.12741E+01  1.21163E+01  1.29460E+01  1.39727E+01
   1.53087E+01  1.69279E+01  1.89507E+01  2.23937E+01  2.80344E+01  3.56173E+01  4.44583E+01  5.31042E+01  5.95262E+01  6.21477E+01
   6.06886E+01  5.60889E+01  4.97095E+01  4.25613E+01  3.51876E+01  2.79097E+01  2.07765E+01  1.39561E+01  8.15355E+00  4.58529E+00
   2.86853E+00  1.69401E+00  7.31255E-01 -1.01314E-01 -8.46736E-01 -1.50273E+00 -2.05458E+00 -2.49531E+00 -2.81878E+00 -3.02011E+00
  -3.09842E+00 -3.05378E+00 -2.88601E+00 -2.60125E+00 -2.21357E+00 -1.74023E+00 -1.20063E+00 -6.12552E-01  2.44989E-03  6.15213E-01
   1.19473E+00  1.70994E+00  2.13063E+00  2.42958E+00  2.58421E+00  2.58114E+00  2.41482E+00  2.08710E+00  1.60707E+00  9.88455E-01
   2.50625E-01 -5.80853E-01 -1.47983E+00 -2.41986E+00 -3.37447E+00 -4.31898E+00 -5.23151E+00 -6.09457E+00 -6.89492E+00 -7.62136E+00
  -8.26638E+00 -8.82656E+00 -9.30084E+00 -9.69040E+00 -9.99699E+00 -1.02219E+01 -1.03633E+01 -1.04119E+01 -1.03361E+01 -1.00683E+01
  -9.64643E+00 -9.21567E+00 -8.93285E+00 -8.96762E+00 -9.43331E+00 -1.03162E+01 -1.14858E+01 -1.26815E+01 -1.36057E+01 -1.40918E+01
  -1.40560E+01 -1.35004E+01 -1.25390E+01 -1.13509E+01 -1.00625E+01 -8.70568E+00 -7.34964E+00 -5.97322E+00 -4.40179E+00 -2.41488E+00
   2.65940E-01  3.58550E+00  7.25040E+00  1.09801E+01  1.43475E+01  1.68311E+01  1.81823E+01  1.84884E+01  1.82440E+01  1.78563E+01
   1.75253E+01  1.73368E+01  1.72336E+01  1.70178E+01  1.65115E+01  1.57602E+01  1.49540E+01  1.39850E+01  1.28385E+01  1.16489E+01
   1.04468E+01  9.19541E+00  7.84762E+00  6.51031E+00  5.52160E+00  4.83917E+00  4.29145E+00  3.80198E+00  3.33681E+00  2.88160E+00
   2.43301E+00  1.99383E+00  1.57062E+00  1.17161E+00  8.05951E-01  4.82671E-01  2.10535E-01 -2.60520E-03 -1.49787E-01 -2.25512E-01
  -2.25616E-01 -1.47717E-01  9.02561E-03  2.43506E-01  5.52913E-01  9.32380E-01  1.37529E+00  1.87304E+00  2.41542E+00  2.99055E+00
   3.58531E+00  4.18535E+00  4.77577E+00  5.34123E+00  5.86671E+00  6.33773E+00  6.74113E+00  7.06525E+00  7.30066E+00  7.44022E+00
   7.47965E+00  7.41736E+00  7.25477E+00  6.99583E+00  6.64718E+00  6.21743E+00  5.71706E+00  5.15768E+00  4.55176E+00  3.91189E+00
   3.25055E+00  2.57948E+00  1.90961E+00  1.25049E+00  6.10446E-01 -3.84333E-03 -5.87011E-01 -1.13526E+00 -1.64598E+00 -2.11785E+00
  -2.55045E+00 -2.94433E+00 -3.30057E+00 -3.62089E+00 -3.90720E+00 -4.16179E+00 -4.38694E+00 -4.58507E+00 -4.75845E+00 -4.90937E+00
  -5.03987E+00 -5.15198E+00 -5.24746E+00 -5.32803E+00 -5.39511E+00 -5.45014E+00 -5.49423E+00 -5.52855E+00 -5.55401E+00 -5.57153E+00
  -5.58180E+00 -5.58559E+00 -5.58342E+00 -5.57593E+00 -5.56351E+00 -5.54670E+00 -5.52579E+00 -5.50121E+00 -5.47320E+00 -5.44213E+00
  -5.40818E+00 -5.37167E+00 -5.33271E+00 -5.29157E+00 -5.24835E+00 -5.20328E+00 -5.15641E+00 -5.10794E+00 -5.05791E+00 -5.00649E+00
  -4.95370E+00 -4.89971E+00 -4.84452E+00 -4.78829E+00 -4.73098E+00 -4.67275E+00 -4.61358E+00 -4.55360E+00 -4.49278E+00 -4.43123E+00
  -4.36891E+00 -4.30596E+00 -4.24232E+00 -4.17811E+00 -4.11328E+00 -4.04793E+00 -3.98200E+00 -3.91561E+00 -3.84871E+00 -3.78139E+00
  -3.71358E+00 -3.64539E+00 -3.57675E+00 -3.50776E+00 -3.43835E+00 -3.36863E+00 -3.29850E+00 -3.22807E+00 -3.15727E+00 -3.08619E+00
  -3.01476E+00 -2.94306E+00 -2.87101E+00 -2.79870E+00 -2.72606E+00 -2.65317E+00 -2.57995E+00 -2.50647E+00
 NY background values follow
     1.113E+01    1.106E+01    1.099E+01    1.091E+01    1.084E+01    1.076E+01    1.069E+01    1.062E+01    1.054E+01    1.047E+01
     1.039E+01    1.032E+01    1.025E+01    1.017E+01    1.010E+01    1.002E+01    9.948E+00    9.873E+00    9.798E+00    9.724E+00
     9.649E+00    9.574E+00    9.499E+00    9.424E+00    9.349E+00    9.274E+00    9.199E+00    9.124E+00    9.048E+00    8.972E+00
     8.897E+00    8.821E+00    8.745E+00    8.669E+00    8.593E+00    8.516E+00    8.440E+00    8.363E+00    8.287E+00    8.210E+00
     8.132E+00    8.055E+00    7.978E+00    7.900E+00    7.823E+00    7.745E+00    7.666E+00    7.588E+00    7.510E+00    7.431E+00
     7.352E+00    7.273E+00    7.194E+00    7.115E+00    7.035E+00    6.955E+00    6.875E+00    6.795E+00    6.715E+00    6.635E+00
     6.554E+00    6.473E+00    6.392E+00    6.311E+00    6.230E+00    6.148E+00    6.067E+00    5.985E+00    5.903E+00    5.821E+00
     5.739E+00    5.656E+00    5.574E+00    5.491E+00    5.408E+00    5.325E+00    5.242E+00    5.158E+00    5.075E+00    4.991E+00
     4.907E+00    4.823E+00    4.739E+00    4.654E+00    4.570E+00    4.485E+00    4.401E+00    4.316E+00    4.230E+00    4.145E+00
     4.060E+00    3.974E+00    3.889E+00    3.803E+00    3.717E+00    3.631E+00    3.544E+00    3.458E+00    3.371E+00    3.284E+00
     3.197E+00    3.110E+00    3.023E+00    2.935E+00    2.848E+00    2.760E+00    2.672E+00    2.583E+00    2.495E+00    2.406E+00
     2.317E+00    2.228E+00    2.139E+00    2.050E+00    1.960E+00    1.870E+00    1.780E+00    1.690E+00    1.599E+00    1.508E+00
     1.417E+00    1.326E+00    1.235E+00    1.143E+00    1.051E+00    9.590E-01    8.666E-01    7.740E-01    6.811E-01    5.879E-01
     4.946E-01    4.009E-01    3.070E-01    2.128E-01    1.184E-01    2.370E-02   -7.127E-02   -1.665E-01   -2.620E-01   -3.577E-01
    -4.537E-01   -5.499E-01   -6.464E-01   -7.430E-01   -8.399E-01   -9.369E-01   -1.034E+00   -1.132E+00   -1.229E+00   -1.327E+00
    -1.425E+00   -1.523E+00   -1.621E+00   -1.719E+00   -1.818E+00   -1.916E+00   -2.015E+00   -2.113E+00   -2.212E+00   -2.311E+00
    -2.410E+00   -2.509E+00   -2.608E+00   -2.707E+00   -2.806E+00   -2.905E+00   -3.004E+00   -3.103E+00   -3.202E+00   -3.301E+00
    -3.400E+00   -3.499E+00   -3.597E+00   -3.696E+00   -3.795E+00   -3.894E+00   -3.992E+00   -4.091E+00   -4.189E+00   -4.287E+00
    -4.385E+00   -4.483E+00   -4.581E+00   -4.679E+00   -4.777E+00   -4.874E+00   -4.971E+00   -5.068E+00   -5.165E+00   -5.262E+00
    -5.359E+00   -5.455E+00   -5.552E+00   -5.648E+00   -5.744E+00   -5.839E+00   -5.935E+00   -6.031E+00   -6.126E+00   -6.221E+00
    -6.316E+00   -6.410E+00   -6.505E+00   -6.599E+00   -6.693E+00   -6.787E+00   -6.881E+00   -6.974E+00   -7.068E+00   -7.161E+00
    -7.254E+00   -7.346E+00   -7.439E+00   -7.531E+00   -7.623E+00   -7.714E+00   -7.806E+00   -7.897E+00   -7.988E+00   -8.079E+00
    -8.170E+00   -8.260E+00   -8.350E+00   -8.440E+00   -8.529E+00   -8.618E+00   -8.707E+00   -8.796E+00   -8.885E+00   -8.973E+00
    -9.061E+00   -9.148E+00   -9.236E+00   -9.322E+00   -9.409E+00   -9.495E+00   -9.581E+00   -9.666E+00   -9.751E+00   -9.836E+00
    -9.920E+00   -1.000E+01   -1.009E+01   -1.017E+01   -1.025E+01   -1.033E+01   -1.041E+01   -1.050E+01   -1.058E+01   -1.066E+01
    -1.073E+01   -1.081E+01   -1.089E+01   -1.097E+01   -1.104E+01   -1.112E+01   -1.120E+01   -1.127E+01   -1.134E+01   -1.142E+01
    -1.149E+01   -1.156E+01   -1.163E+01   -1.170E+01   -1.177E+01   -1.184E+01   -1.191E+01   -1.198E+01   -1.204E+01   -1.211E+01
    -1.217E+01   -1.224E+01   -1.230E+01   -1.236E+01   -1.243E+01   -1.249E+01   -1.255E+01   -1.260E+01   -1.266E+01   -1.272E+01
    -1.277E+01   -1.283E+01   -1.288E+01   -1.294E+01   -1.299E+01   -1.304E+01   -1.309E+01   -1.314E+01   -1.318E+01   -1.323E+01
    -1.327E+01   -1.332E+01   -1.336E+01   -1.340E+01   -1.344E+01   -1.348E+01   -1.352E+01   -1.356E+01   -1.359E+01   -1.363E+01
    -1.366E+01   -1.369E+01   -1.373E+01   -1.375E+01   -1.378E+01   -1.381E+01   -1.383E+01   -1.386E+01   -1.388E+01   -1.390E+01
    -1.392E+01   -1.394E+01   -1.396E+01   -1.397E+01   -1.399E+01   -1.400E+01   -1.401E+01   -1.402E+01   -1.403E+01   -1.404E+01
    -1.404E+01   -1.405E+01   -1.405E+01   -1.405E+01   -1.405E+01   -1.405E+01   -1.405E+01   -1.404E+01   -1.404E+01   -1.403E+01
    -1.402E+01   -1.401E+01   -1.400E+01   -1.399E+01   -1.397E+01   -1.396E+01   -1.394E+01   -1.392E+01   -1.390E+01   -1.388E+01
    -1.386E+01   -1.384E+01   -1.382E+01   -1.379E+01   -1.377E+01   -1.374E+01   -1.371E+01   -1.368E+01   -1.365E+01   -1.362E+01
    -1.358E+01   -1.355E+01   -1.351E+01   -1.348E+01   -1.344E+01   -1.340E+01   -1.336E+01   -1.332E+01   -1.328E+01   -1.324E+01
    -1.319E+01   -1.315E+01   -1.310E+01   -1.306E+01   -1.301E+01   -1.296E+01   -1.291E+01   -1.286E+01   -1.281E+01   -1.276E+01
    -1.271E+01   -1.265E+01   -1.260E+01   -1.254E+01   -1.249E+01   -1.243E+01   -1.237E+01   -1.231E+01   -1.225E+01   -1.219E+01
    -1.213E+01   -1.207E+01   -1.201E+01   -1.195E+01   -1.188E+01   -1.182E+01   -1.175E+01   -1.169E+01   -1.162E+01   -1.155E+01
    -1.148E+01   -1.142E+01   -1.135E+01   -1.128E+01   -1.121E+01   -1.114E+01   -1.107E+01   -1.099E+01   -1.092E+01   -1.085E+01
    -1.078E+01   -1.070E+01   -1.063E+01   -1.055E+01   -1.048E+01   -1.040E+01   -1.033E+01   -1.025E+01   -1.018E+01   -1.010E+01
    -1.002E+01   -9.944E+00   -9.866E+00   -9.787E+00   -9.709E+00   -9.630E+00   -9.550E+00   -9.471E+00   -9.391E+00   -9.311E+00
    -9.230E+00   -9.150E+00   -9.069E+00   -8.988E+00   -8.906E+00   -8.825E+00   -8.743E+00   -8.661E+00   -8.579E+00   -8.497E+00
    -8.414E+00   -8.332E+00   -8.249E+00   -8.166E+00   -8.083E+00   -8.000E+00   -7.917E+00   -7.834E+00   -7.750E+00   -7.667E+00
    -7.584E+00   -7.500E+00   -7.417E+00   -7.333E+00   -7.250E+00   -7.166E+00   -7.083E+00   -7.000E+00   -6.916E+00   -6.833E+00
    -6.750E+00   -6.666E+00   -6.583E+00   -6.500E+00   -6.417E+00   -6.334E+00   -6.251E+00   -6.169E+00   -6.086E+00   -6.004E+00
    -5.921E+00   -5.839E+00   -5.756E+00   -5.674E+00   -5.592E+00   -5.509E+00   -5.427E+00   -5.345E+00   -5.263E+00   -5.181E+00
    -5.099E+00   -5.017E+00   -4.936E+00   -4.854E+00   -4.772E+00   -4.690E+00   -4.609E+00   -4.527E+00   -4.445E+00   -4.364E+00
    -4.282E+00   -4.201E+00   -4.119E+00   -4.037E+00   -3.956E+00   -3.874E+00   -3.793E+00   -3.711E+00   -3.630E+00   -3.549E+00
    -3.467E+00   -3.386E+00   -3.304E+00   -3.223E+00   -3.141E+00   -3.060E+00   -2.978E+00   -2.896E+00
 Ala      Conc. = 3.22E+02
