 LCModel (Version 6.3-1L) Copyright: S.W. Provencher.          Ref.: Magn. Reson. Med. 30:672-679 (1993).                
 Slice#3 Row#14 Col#3  K_02_press_1_raw_act
 36 lines in following concentration table = NCONC+1
    Conc.  %SD /Cr+PCr  Metabolite                                         
 2.29E+03  24%  10.027 Ala                                                 
   24.695  11%   0.108 Asp                                                 
    0.000 999%   0.000 Cr                                                  
  228.044  16%   1.000 PCr                                                 
   14.817  11% 6.5E-02 GABA                                                
   14.817  11% 6.5E-02 Glc                                                 
  663.224  49%   2.908 Gln                                                 
    0.000 999%   0.000 Glu                                                 
    0.000 999%   0.000 GPC                                                 
   88.624  14%   0.389 PCh                                                 
   45.119 133%   0.198 GSH                                                 
    0.000 999%   0.000 Ins                                                 
    0.000 999%   0.000 Lac                                                 
    0.000 999%   0.000 NAA                                                 
    0.000 999%   0.000 NAAG                                                
    4.940  11% 2.2E-02 Scyllo                                              
   24.696  11%   0.108 Tau                                                 
   22.769  16%   0.100 -CrCH2                                              
   88.624  14%   0.389 GPC+PCh                                             
    0.000 999%   0.000 NAA+NAAG                                            
  228.044  16%   1.000 Cr+PCr                                              
  663.224  49%   2.908 Glu+Gln                                             
 1.66E+03  42%   7.294 Lip13a                                              
   10.231 853% 4.5E-02 Lip13b                                              
    0.000 999%   0.000 Lip09                                               
  170.816  51%   0.749 MM09                                                
    0.000 999%   0.000 Lip20                                               
    0.000 999%   0.000 MM20                                                
  807.580  40%   3.541 MM12                                                
 2.60E+03  19%  11.423 MM14                                                
 2.65E+03  13%  11.631 MM17                                                
 1.67E+03  40%   7.339 Lip13a+Lip13b                                       
 5.09E+03  13%  22.303 MM14+Lip13a+Lip13b+MM12                             
  170.816  51%   0.749 MM09+Lip09                                          
    0.000 999%   0.000 MM20+Lip20                                          
   6 lines in following misc. output table
  FWHM = 0.183 ppm    S/N =   5                                            
  Data shift = 0.153 ppm                                                   
  Ph: 132 deg      91.1 deg/ppm                                            
  alphaB,S = 2.0E+00,   1.9E+02                                            
    7 spline knots.   Ns = 9(2)                                            
  (15) 2 infls.   (16) 1 extrs.                                            
  498 points on ppm-axis = NY
      4.000000     3.992357     3.984714     3.977070     3.969427     3.961784     3.954141     3.946497     3.938854     3.931211
      3.923568     3.915925     3.908281     3.900638     3.892995     3.885352     3.877708     3.870065     3.862422     3.854779
      3.847136     3.839492     3.831849     3.824206     3.816563     3.808919     3.801276     3.793633     3.785990     3.778347
      3.770703     3.763060     3.755417     3.747774     3.740130     3.732487     3.724844     3.717201     3.709558     3.701914
      3.694271     3.686628     3.678985     3.671341     3.663698     3.656055     3.648412     3.640769     3.633125     3.625482
      3.617839     3.610196     3.602552     3.594909     3.587266     3.579623     3.571980     3.564336     3.556693     3.549050
      3.541407     3.533763     3.526120     3.518477     3.510834     3.503191     3.495547     3.487904     3.480261     3.472618
      3.464974     3.457331     3.449688     3.442045     3.434402     3.426758     3.419115     3.411472     3.403829     3.396185
      3.388542     3.380899     3.373256     3.365613     3.357969     3.350326     3.342683     3.335040     3.327396     3.319753
      3.312110     3.304467     3.296824     3.289180     3.281537     3.273894     3.266251     3.258607     3.250964     3.243321
      3.235678     3.228034     3.220391     3.212748     3.205105     3.197462     3.189818     3.182175     3.174532     3.166889
      3.159245     3.151602     3.143959     3.136316     3.128673     3.121029     3.113386     3.105743     3.098100     3.090456
      3.082813     3.075170     3.067527     3.059884     3.052240     3.044597     3.036954     3.029311     3.021667     3.014024
      3.006381     2.998738     2.991095     2.983451     2.975808     2.968165     2.960522     2.952878     2.945235     2.937592
      2.929949     2.922306     2.914662     2.907019     2.899376     2.891733     2.884089     2.876446     2.868803     2.861160
      2.853517     2.845873     2.838230     2.830587     2.822944     2.815300     2.807657     2.800014     2.792371     2.784728
      2.777084     2.769441     2.761798     2.754155     2.746511     2.738868     2.731225     2.723582     2.715939     2.708295
      2.700652     2.693009     2.685366     2.677722     2.670079     2.662436     2.654793     2.647150     2.639506     2.631863
      2.624220     2.616577     2.608933     2.601290     2.593647     2.586004     2.578361     2.570717     2.563074     2.555431
      2.547788     2.540144     2.532501     2.524858     2.517215     2.509572     2.501928     2.494285     2.486642     2.478999
      2.471355     2.463712     2.456069     2.448426     2.440783     2.433139     2.425496     2.417853     2.410210     2.402566
      2.394923     2.387280     2.379637     2.371994     2.364350     2.356707     2.349064     2.341421     2.333777     2.326134
      2.318491     2.310848     2.303205     2.295561     2.287918     2.280275     2.272632     2.264988     2.257345     2.249702
      2.242059     2.234416     2.226772     2.219129     2.211486     2.203843     2.196199     2.188556     2.180913     2.173270
      2.165627     2.157983     2.150340     2.142697     2.135054     2.127410     2.119767     2.112124     2.104481     2.096838
      2.089194     2.081551     2.073908     2.066265     2.058621     2.050978     2.043335     2.035692     2.028049     2.020405
      2.012762     2.005119     1.997476     1.989833     1.982190     1.974546     1.966903     1.959260     1.951617     1.943974
      1.936331     1.928688     1.921045     1.913402     1.905759     1.898115     1.890472     1.882829     1.875186     1.867543
      1.859900     1.852257     1.844614     1.836971     1.829327     1.821684     1.814041     1.806398     1.798755     1.791112
      1.783469     1.775826     1.768183     1.760540     1.752896     1.745253     1.737610     1.729967     1.722324     1.714681
      1.707038     1.699395     1.691752     1.684108     1.676465     1.668822     1.661179     1.653536     1.645893     1.638250
      1.630607     1.622964     1.615321     1.607677     1.600034     1.592391     1.584748     1.577105     1.569462     1.561819
      1.554176     1.546533     1.538890     1.531246     1.523603     1.515960     1.508317     1.500674     1.493031     1.485388
      1.477745     1.470102     1.462458     1.454815     1.447172     1.439529     1.431886     1.424243     1.416600     1.408957
      1.401314     1.393671     1.386027     1.378384     1.370741     1.363098     1.355455     1.347812     1.340169     1.332526
      1.324883     1.317240     1.309596     1.301953     1.294310     1.286667     1.279024     1.271381     1.263738     1.256095
      1.248452     1.240808     1.233165     1.225522     1.217879     1.210236     1.202593     1.194950     1.187307     1.179664
      1.172021     1.164377     1.156734     1.149091     1.141448     1.133805     1.126162     1.118519     1.110876     1.103233
      1.095590     1.087946     1.080303     1.072660     1.065017     1.057374     1.049731     1.042088     1.034445     1.026802
      1.019158     1.011515     1.003872     0.996229     0.988586     0.980943     0.973300     0.965657     0.958014     0.950371
      0.942727     0.935084     0.927441     0.919798     0.912155     0.904512     0.896869     0.889226     0.881583     0.873940
      0.866296     0.858653     0.851010     0.843367     0.835724     0.828081     0.820438     0.812795     0.805152     0.797508
      0.789865     0.782222     0.774579     0.766936     0.759293     0.751650     0.744007     0.736364     0.728721     0.721077
      0.713434     0.705791     0.698148     0.690505     0.682862     0.675219     0.667576     0.659933     0.652290     0.644646
      0.637003     0.629360     0.621717     0.614074     0.606431     0.598788     0.591145     0.583502     0.575858     0.568215
      0.560572     0.552929     0.545286     0.537643     0.530000     0.522357     0.514714     0.507071     0.499427     0.491784
      0.484141     0.476498     0.468855     0.461212     0.453569     0.445925     0.438282     0.430639     0.422996     0.415353
      0.407710     0.400067     0.392424     0.384780     0.377137     0.369494     0.361851     0.354208     0.346565     0.338922
      0.331278     0.323635     0.315992     0.308349     0.300706     0.293063     0.285420     0.277777     0.270133     0.262490
      0.254847     0.247204     0.239561     0.231918     0.224275     0.216631     0.208988     0.201345
 NY phased data points follow
   3.14203E+01  3.11563E+01  3.01664E+01  2.89809E+01  2.86176E+01  2.51217E+01  2.71505E+01  2.68232E+01  2.59809E+01  2.40137E+01
   2.26534E+01  2.39597E+01  2.26088E+01  2.12135E+01  2.08986E+01  1.99589E+01  1.99948E+01  1.81031E+01  1.85386E+01  1.82780E+01
   1.81551E+01  1.58575E+01  1.59257E+01  1.62930E+01  1.49790E+01  1.54753E+01  1.27151E+01  1.34881E+01  1.35828E+01  1.21681E+01
   1.02168E+01  1.05339E+01  1.21831E+01  8.16339E+00  8.31001E+00  8.64663E+00  9.07255E+00  8.15286E+00  6.54853E+00  5.23549E+00
   7.33852E+00  6.56849E+00  3.71367E+00  5.77886E+00  5.15496E+00  1.92606E+00  2.17112E+00  2.51393E+00  2.13162E+00  1.98357E+00
  -2.70917E-01 -4.35519E-01 -1.07319E+00 -1.48815E+00 -1.11795E+00 -1.55763E+00 -3.43937E+00 -3.16939E+00 -2.31365E+00 -4.45444E+00
  -3.01994E+00 -3.98346E+00 -2.59611E+00 -3.98746E+00 -5.20738E+00 -4.50250E+00 -6.22149E+00 -6.49737E+00 -6.96165E+00 -5.74236E+00
  -6.23205E+00 -5.85767E+00 -7.46363E+00 -8.15103E+00 -8.77441E+00 -6.74098E+00 -8.01772E+00 -8.14097E+00 -8.79855E+00 -8.43192E+00
  -7.54541E+00 -9.06053E+00 -9.61695E+00 -8.60824E+00 -7.69283E+00 -7.77387E+00 -7.67645E+00 -9.09071E+00 -9.38132E+00 -9.69207E+00
  -9.02496E+00 -1.07525E+01 -9.23628E+00 -8.27744E+00 -1.04778E+01 -1.12427E+01 -7.96030E+00 -1.11336E+01 -1.02740E+01 -1.23048E+01
  -1.04167E+01 -1.23429E+01 -1.20479E+01 -1.24062E+01 -1.28134E+01 -1.13489E+01 -1.29998E+01 -1.26370E+01 -1.15812E+01 -1.14825E+01
  -1.37562E+01 -1.36768E+01 -1.39602E+01 -1.31713E+01 -1.37539E+01 -1.33217E+01 -1.38136E+01 -1.52100E+01 -1.46133E+01 -1.35010E+01
  -1.55761E+01 -1.39042E+01 -1.51263E+01 -1.68565E+01 -1.58258E+01 -1.51956E+01 -1.60517E+01 -1.61869E+01 -1.59485E+01 -1.58023E+01
  -1.53988E+01 -1.78806E+01 -1.68703E+01 -1.74398E+01 -1.59841E+01 -1.68707E+01 -1.77458E+01 -1.74112E+01 -1.60133E+01 -1.93032E+01
  -1.84827E+01 -1.81379E+01 -1.69402E+01 -1.44917E+01 -1.83583E+01 -1.80032E+01 -1.84067E+01 -1.76666E+01 -1.93489E+01 -1.77220E+01
  -1.88827E+01 -1.76282E+01 -1.99909E+01 -1.88352E+01 -1.91210E+01 -2.13587E+01 -1.86509E+01 -2.22980E+01 -1.88021E+01 -2.03437E+01
  -1.82698E+01 -1.83014E+01 -2.02600E+01 -2.16314E+01 -2.11772E+01 -1.97864E+01 -2.01086E+01 -1.96157E+01 -2.30743E+01 -2.01843E+01
  -1.95052E+01 -2.22760E+01 -2.03752E+01 -2.23638E+01 -1.94043E+01 -1.90703E+01 -1.92130E+01 -2.22627E+01 -2.06194E+01 -2.26633E+01
  -2.02838E+01 -2.17654E+01 -2.10967E+01 -1.94622E+01 -2.24647E+01 -2.14601E+01 -2.18551E+01 -2.17583E+01 -1.99510E+01 -1.98885E+01
  -2.12099E+01 -2.15257E+01 -2.28602E+01 -2.31665E+01 -2.27058E+01 -2.14989E+01 -2.14479E+01 -2.20575E+01 -2.05676E+01 -2.16379E+01
  -2.26866E+01 -2.32755E+01 -2.08394E+01 -2.21601E+01 -2.13914E+01 -2.01755E+01 -2.22569E+01 -2.03245E+01 -2.24817E+01 -2.22035E+01
  -2.18908E+01 -2.20502E+01 -2.04242E+01 -2.16931E+01 -2.19866E+01 -2.00515E+01 -1.98718E+01 -2.12882E+01 -2.12813E+01 -1.99148E+01
  -2.14783E+01 -2.23335E+01 -2.09963E+01 -2.07947E+01 -2.16978E+01 -2.14745E+01 -2.14485E+01 -2.07922E+01 -2.17032E+01 -1.70342E+01
  -2.03813E+01 -2.10255E+01 -2.05546E+01 -2.01718E+01 -2.04721E+01 -1.86391E+01 -1.94368E+01 -1.65698E+01 -1.88855E+01 -2.01830E+01
  -2.00886E+01 -2.02791E+01 -2.04883E+01 -2.08889E+01 -2.16405E+01 -2.22079E+01 -1.98790E+01 -2.08001E+01 -2.20951E+01 -2.12567E+01
  -2.29729E+01 -2.12490E+01 -2.14932E+01 -2.03997E+01 -2.33538E+01 -2.13242E+01 -2.33070E+01 -2.30762E+01 -2.15022E+01 -2.23741E+01
  -2.30872E+01 -2.23526E+01 -2.33345E+01 -2.20288E+01 -2.26829E+01 -2.08736E+01 -2.30023E+01 -2.38355E+01 -2.12087E+01 -2.18690E+01
  -2.16737E+01 -2.27719E+01 -2.25613E+01 -2.13315E+01 -2.12598E+01 -2.27736E+01 -2.17436E+01 -2.05047E+01 -2.30474E+01 -2.10265E+01
  -2.00084E+01 -2.07850E+01 -1.88462E+01 -1.89435E+01 -2.12776E+01 -1.77895E+01 -1.90387E+01 -1.72883E+01 -1.76336E+01 -1.66485E+01
  -1.46819E+01 -1.28741E+01 -1.33103E+01 -1.27839E+01 -1.19737E+01 -1.21908E+01 -1.00153E+01 -1.02006E+01 -8.39215E+00 -8.13585E+00
  -6.50512E+00 -8.42962E+00 -7.65054E+00 -6.32709E+00 -9.18147E+00 -7.29351E+00 -7.10861E+00 -6.71024E+00 -5.58429E+00 -7.05499E+00
  -5.48235E+00 -5.99749E+00 -3.98023E+00 -3.79055E+00 -2.58355E+00 -1.96033E+00 -2.74496E+00 -2.50298E+00 -4.87358E-01 -2.45161E+00
  -1.30116E+00 -4.51803E-01 -1.12098E+00 -1.42235E+00 -2.18538E+00  1.64162E+00 -6.18262E-01  4.87139E-01  2.07999E+00  2.06674E+00
   1.91378E+00  2.07223E+00  2.72315E+00  2.91672E+00  3.22563E+00  2.31799E+00  2.44645E+00  1.73025E+00  3.66056E+00  3.77079E+00
   2.69083E+00  3.06606E+00  3.44703E+00  1.73437E+00  1.54361E+00  2.80528E+00  4.58788E+00  5.54044E+00  3.91004E+00  4.13983E+00
   5.50638E+00  4.22611E+00  3.43855E+00  5.57060E+00  4.43328E+00  6.34324E+00  5.49009E+00  4.96479E+00  6.30901E+00  6.71324E+00
   6.16135E+00  4.11790E+00  5.74285E+00  6.08439E+00  6.32559E+00  5.92651E+00  4.57224E+00  4.26137E+00  5.98823E+00  6.54892E+00
   6.53790E+00  5.32752E+00  5.80154E+00  6.29487E+00  6.91980E+00  7.78432E+00  5.79046E+00  4.87546E+00  6.60091E+00  5.30592E+00
   6.51698E+00  5.79553E+00  5.74054E+00  6.47819E+00  7.57075E+00  6.71293E+00  5.73969E+00  5.25284E+00  4.96149E+00  6.03785E+00
   5.53629E+00  4.77956E+00  3.47250E+00  4.78575E+00  7.61730E+00  6.59809E+00  4.47362E+00  5.10010E+00  6.95867E+00  5.89755E+00
   3.39161E+00  4.81394E+00  3.67119E+00  5.74581E+00  6.22720E+00  4.06089E+00  5.37921E+00  5.84685E+00  4.79843E+00  4.89832E+00
   5.57276E+00  4.56974E+00  4.71313E+00  4.72485E+00  4.19394E+00  5.20621E+00  4.97280E+00  3.57863E+00  6.55735E+00  4.81086E+00
   4.25725E+00  5.08040E+00  5.10724E+00  4.15474E+00  4.94334E+00  4.81769E+00  4.50076E+00  6.26175E+00  4.10373E+00  3.43039E+00
   5.62593E+00  4.53459E+00  4.14879E+00  3.98481E+00  2.78296E+00  4.22132E+00  3.61454E+00  4.40053E+00  3.33969E+00  3.89955E+00
   4.48139E+00  4.92140E+00  3.65610E+00  4.59616E+00  6.03020E+00  5.62811E+00  5.77815E+00  4.64230E+00  4.42843E+00  4.87233E+00
   4.83211E+00  7.61770E+00  4.57873E+00  6.04678E+00  5.13594E+00  6.17697E+00  5.86599E+00  4.37501E+00  4.43459E+00  5.14357E+00
   4.57455E+00  5.50191E+00  5.80279E+00  6.06696E+00  5.72240E+00  6.68327E+00  6.22154E+00  5.90195E+00  5.71559E+00  5.62421E+00
   4.41485E+00  5.04405E+00  3.94371E+00  4.30825E+00  5.53908E+00  4.98415E+00  5.07408E+00  6.32584E+00  4.91535E+00  4.02005E+00
   4.10488E+00  4.38462E+00  4.78637E+00  4.53934E+00  4.01962E+00  4.29084E+00  3.99727E+00  6.12489E+00  3.60411E+00  3.50941E+00
   4.66304E+00  4.58390E+00  3.82749E+00  4.89902E+00  3.68845E+00  5.70327E+00  6.01345E+00  4.56675E+00
 NY points of the fit to the data follow
   2.88308E+01  2.81156E+01  2.76890E+01  2.69609E+01  2.65427E+01  2.58667E+01  2.55371E+01  2.49884E+01  2.45279E+01  2.40244E+01
   2.34057E+01  2.29462E+01  2.21516E+01  2.16881E+01  2.07258E+01  2.03975E+01  1.93310E+01  1.91077E+01  1.79751E+01  1.78479E+01
   1.67239E+01  1.67058E+01  1.55554E+01  1.56105E+01  1.44292E+01  1.45039E+01  1.32961E+01  1.33555E+01  1.21357E+01  1.21517E+01
   1.10101E+01  1.10231E+01  1.00154E+01  9.96374E+00  9.06910E+00  8.93698E+00  8.11275E+00  7.86964E+00  7.15262E+00  6.82951E+00
   6.21093E+00  5.85790E+00  5.34566E+00  4.97903E+00  4.52498E+00  4.10806E+00  3.70183E+00  3.27015E+00  2.81819E+00  2.34382E+00
   1.87613E+00  1.40293E+00  9.64719E-01  4.99110E-01  9.11894E-02 -3.12305E-01 -6.78382E-01 -1.05256E+00 -1.41323E+00 -1.78219E+00
  -2.13600E+00 -2.48992E+00 -2.86148E+00 -3.21700E+00 -3.58596E+00 -3.93653E+00 -4.29941E+00 -4.64448E+00 -4.99387E+00 -5.33071E+00
  -5.67051E+00 -6.00032E+00 -6.33070E+00 -6.65448E+00 -6.97454E+00 -7.29277E+00 -7.60797E+00 -7.92386E+00 -8.23768E+00 -8.55401E+00
  -8.86750E+00 -9.18281E+00 -9.49904E+00 -9.81381E+00 -1.01028E+01 -1.02364E+01 -1.04293E+01 -1.04825E+01 -1.06100E+01 -1.06081E+01
  -1.06774E+01 -1.06517E+01 -1.06751E+01 -1.06629E+01 -1.06606E+01 -1.07093E+01 -1.07090E+01 -1.08378E+01 -1.08556E+01 -1.10551E+01
  -1.10891E+01 -1.13242E+01 -1.13680E+01 -1.16499E+01 -1.17110E+01 -1.20381E+01 -1.21294E+01 -1.25372E+01 -1.26608E+01 -1.29720E+01
  -1.30296E+01 -1.33129E+01 -1.33210E+01 -1.35826E+01 -1.35416E+01 -1.38375E+01 -1.37705E+01 -1.40892E+01 -1.39997E+01 -1.43549E+01
  -1.42586E+01 -1.46252E+01 -1.45221E+01 -1.49093E+01 -1.47979E+01 -1.51205E+01 -1.49644E+01 -1.53042E+01 -1.51449E+01 -1.55067E+01
  -1.53594E+01 -1.57694E+01 -1.56650E+01 -1.60968E+01 -1.60357E+01 -1.64698E+01 -1.64508E+01 -1.68725E+01 -1.68953E+01 -1.73284E+01
  -1.74140E+01 -1.78197E+01 -1.79492E+01 -1.83086E+01 -1.84638E+01 -1.87517E+01 -1.89080E+01 -1.91447E+01 -1.92981E+01 -1.94407E+01
  -1.95493E+01 -1.96639E+01 -1.97593E+01 -1.98584E+01 -1.99466E+01 -2.00318E+01 -2.01133E+01 -2.01888E+01 -2.02658E+01 -2.03332E+01
  -2.04059E+01 -2.04659E+01 -2.05323E+01 -2.05853E+01 -2.06444E+01 -2.06923E+01 -2.07439E+01 -2.07873E+01 -2.08328E+01 -2.08713E+01
  -2.09113E+01 -2.09450E+01 -2.09769E+01 -2.10023E+01 -2.10226E+01 -2.10435E+01 -2.10684E+01 -2.10842E+01 -2.11378E+01 -2.11589E+01
  -2.12490E+01 -2.12731E+01 -2.13964E+01 -2.13907E+01 -2.15130E+01 -2.14656E+01 -2.15843E+01 -2.14678E+01 -2.15757E+01 -2.14010E+01
  -2.15094E+01 -2.13358E+01 -2.15501E+01 -2.13528E+01 -2.16317E+01 -2.14133E+01 -2.17576E+01 -2.15162E+01 -2.19033E+01 -2.16314E+01
  -2.20260E+01 -2.17126E+01 -2.20825E+01 -2.17306E+01 -2.20624E+01 -2.16945E+01 -2.19919E+01 -2.16329E+01 -2.19026E+01 -2.15578E+01
  -2.17866E+01 -2.14584E+01 -2.16440E+01 -2.13348E+01 -2.14729E+01 -2.11943E+01 -2.12953E+01 -2.10794E+01 -2.12108E+01 -2.10332E+01
  -2.11609E+01 -2.09830E+01 -2.10601E+01 -2.08275E+01 -2.08759E+01 -2.06435E+01 -2.06904E+01 -2.04804E+01 -2.05581E+01 -2.03878E+01
  -2.04892E+01 -2.03935E+01 -2.05482E+01 -2.04965E+01 -2.06561E+01 -2.06311E+01 -2.07766E+01 -2.07591E+01 -2.08822E+01 -2.08590E+01
  -2.09417E+01 -2.09334E+01 -2.09819E+01 -2.09982E+01 -2.10229E+01 -2.10806E+01 -2.10858E+01 -2.11682E+01 -2.11376E+01 -2.12360E+01
  -2.11783E+01 -2.12875E+01 -2.12161E+01 -2.13443E+01 -2.12788E+01 -2.14064E+01 -2.13405E+01 -2.14656E+01 -2.14186E+01 -2.15238E+01
  -2.14790E+01 -2.15679E+01 -2.15247E+01 -2.15916E+01 -2.15642E+01 -2.16394E+01 -2.16315E+01 -2.17149E+01 -2.17241E+01 -2.18016E+01
  -2.18145E+01 -2.18737E+01 -2.18752E+01 -2.18940E+01 -2.18655E+01 -2.18310E+01 -2.17536E+01 -2.16498E+01 -2.15026E+01 -2.13101E+01
  -2.10672E+01 -2.07669E+01 -2.04048E+01 -1.99754E+01 -1.94784E+01 -1.89107E+01 -1.82769E+01 -1.75773E+01 -1.68227E+01 -1.60175E+01
  -1.51777E+01 -1.43118E+01 -1.34401E+01 -1.25730E+01 -1.17325E+01 -1.09291E+01 -1.01833E+01 -9.50299E+00 -8.90392E+00 -8.38896E+00
  -7.96719E+00 -7.63464E+00 -7.39211E+00 -7.22812E+00 -7.13457E+00 -7.09055E+00 -7.07292E+00 -7.02556E+00 -6.77285E+00 -6.04041E+00
  -5.68220E+00 -4.70671E+00 -4.38610E+00 -3.26740E+00 -3.12502E+00 -2.17255E+00 -2.67803E+00 -1.74344E+00 -2.29544E+00 -1.44661E+00
  -1.98175E+00 -1.25379E+00 -1.62192E+00 -9.41843E-01 -9.86427E-01 -2.47863E-01  6.67607E-02  7.18128E-01  1.27141E+00  1.70785E+00
   2.28011E+00  2.28475E+00  2.78036E+00  2.51520E+00  3.05777E+00  2.61924E+00  3.23050E+00  2.71341E+00  3.42277E+00  2.66743E+00
   3.35936E+00  2.56901E+00  3.27175E+00  2.57328E+00  3.33498E+00  2.92222E+00  3.80713E+00  3.52830E+00  4.35057E+00  4.36533E+00
   4.98980E+00  4.95415E+00  5.27680E+00  5.23637E+00  5.40991E+00  5.33057E+00  5.25721E+00  5.25383E+00  5.29945E+00  5.38120E+00
   5.48569E+00  5.60703E+00  5.73633E+00  5.87063E+00  6.00301E+00  6.13177E+00  6.25087E+00  6.35934E+00  6.45190E+00  6.52840E+00
   6.58456E+00  6.62134E+00  6.63568E+00  6.62978E+00  6.60183E+00  6.55515E+00  6.48895E+00  6.40744E+00  6.31054E+00  6.20303E+00
   6.08525E+00  5.96218E+00  5.83429E+00  5.70652E+00  5.57917E+00  5.45692E+00  5.33973E+00  5.23182E+00  5.13268E+00  5.04593E+00
   4.97042E+00  4.90909E+00  4.86009E+00  4.82561E+00  4.80306E+00  4.79386E+00  4.79477E+00  4.80658E+00  4.82550E+00  4.85192E+00
   4.88177E+00  4.91531E+00  4.94851E+00  4.98181E+00  5.01152E+00  5.03848E+00  5.05958E+00  5.07623E+00  5.08593E+00  5.09069E+00
   5.08859E+00  5.08212E+00  5.06977E+00  5.05433E+00  5.03451E+00  5.01322E+00  4.98918E+00  4.96524E+00  4.94003E+00  4.91621E+00
   4.89226E+00  4.87061E+00  4.84956E+00  4.83136E+00  4.81412E+00  4.79993E+00  4.78681E+00  4.77671E+00  4.76759E+00  4.76132E+00
   4.75583E+00  4.75296E+00  4.75063E+00  4.75064E+00  4.75094E+00  4.75334E+00  4.75577E+00  4.76006E+00  4.76418E+00  4.76994E+00
   4.77532E+00  4.78216E+00  4.78846E+00  4.79605E+00  4.80295E+00  4.81098E+00  4.81820E+00  4.82641E+00  4.83371E+00  4.84188E+00
   4.84902E+00  4.85694E+00  4.86374E+00  4.87122E+00  4.87750E+00  4.88437E+00  4.88998E+00  4.89609E+00  4.90086E+00  4.90607E+00
   4.90989E+00  4.91407E+00  4.91680E+00  4.91983E+00  4.92136E+00  4.92313E+00  4.92336E+00  4.92376E+00  4.92257E+00  4.92151E+00
   4.91882E+00  4.91619E+00  4.91190E+00  4.90763E+00  4.90165E+00  4.89563E+00  4.88787E+00  4.88001E+00  4.87038E+00  4.86060E+00
   4.84900E+00  4.83720E+00  4.82354E+00  4.80962E+00  4.79377E+00  4.77760E+00  4.75946E+00  4.74091E+00  4.72031E+00  4.69922E+00
   4.67598E+00  4.65213E+00  4.62601E+00  4.59911E+00  4.56977E+00  4.53940E+00  4.50631E+00  4.47183E+00
 NY background values follow
     2.785E+01    2.722E+01    2.660E+01    2.598E+01    2.537E+01    2.476E+01    2.416E+01    2.356E+01    2.297E+01    2.238E+01
     2.180E+01    2.122E+01    2.064E+01    2.007E+01    1.951E+01    1.895E+01    1.839E+01    1.784E+01    1.730E+01    1.676E+01
     1.622E+01    1.569E+01    1.516E+01    1.464E+01    1.412E+01    1.361E+01    1.310E+01    1.259E+01    1.209E+01    1.160E+01
     1.111E+01    1.062E+01    1.014E+01    9.665E+00    9.193E+00    8.725E+00    8.262E+00    7.803E+00    7.349E+00    6.899E+00
     6.453E+00    6.012E+00    5.576E+00    5.144E+00    4.716E+00    4.293E+00    3.874E+00    3.459E+00    3.049E+00    2.643E+00
     2.241E+00    1.844E+00    1.451E+00    1.062E+00    6.777E-01    2.975E-01   -7.844E-02   -4.501E-01   -8.176E-01   -1.181E+00
    -1.540E+00   -1.895E+00   -2.246E+00   -2.592E+00   -2.935E+00   -3.273E+00   -3.608E+00   -3.938E+00   -4.264E+00   -4.586E+00
    -4.904E+00   -5.218E+00   -5.528E+00   -5.834E+00   -6.136E+00   -6.434E+00   -6.728E+00   -7.018E+00   -7.305E+00   -7.587E+00
    -7.866E+00   -8.140E+00   -8.411E+00   -8.678E+00   -8.941E+00   -9.201E+00   -9.456E+00   -9.708E+00   -9.956E+00   -1.020E+01
    -1.044E+01   -1.068E+01   -1.091E+01   -1.114E+01   -1.137E+01   -1.159E+01   -1.181E+01   -1.202E+01   -1.223E+01   -1.244E+01
    -1.265E+01   -1.285E+01   -1.305E+01   -1.324E+01   -1.343E+01   -1.362E+01   -1.380E+01   -1.398E+01   -1.416E+01   -1.433E+01
    -1.450E+01   -1.467E+01   -1.483E+01   -1.499E+01   -1.515E+01   -1.530E+01   -1.545E+01   -1.560E+01   -1.575E+01   -1.589E+01
    -1.602E+01   -1.616E+01   -1.629E+01   -1.642E+01   -1.654E+01   -1.667E+01   -1.678E+01   -1.690E+01   -1.701E+01   -1.712E+01
    -1.723E+01   -1.734E+01   -1.744E+01   -1.754E+01   -1.763E+01   -1.773E+01   -1.782E+01   -1.790E+01   -1.799E+01   -1.807E+01
    -1.815E+01   -1.823E+01   -1.830E+01   -1.837E+01   -1.844E+01   -1.851E+01   -1.857E+01   -1.863E+01   -1.869E+01   -1.875E+01
    -1.880E+01   -1.885E+01   -1.890E+01   -1.895E+01   -1.899E+01   -1.904E+01   -1.908E+01   -1.911E+01   -1.915E+01   -1.918E+01
    -1.921E+01   -1.924E+01   -1.927E+01   -1.929E+01   -1.932E+01   -1.934E+01   -1.936E+01   -1.937E+01   -1.939E+01   -1.940E+01
    -1.941E+01   -1.942E+01   -1.943E+01   -1.943E+01   -1.944E+01   -1.944E+01   -1.944E+01   -1.944E+01   -1.943E+01   -1.943E+01
    -1.942E+01   -1.941E+01   -1.940E+01   -1.939E+01   -1.938E+01   -1.936E+01   -1.935E+01   -1.933E+01   -1.931E+01   -1.929E+01
    -1.927E+01   -1.924E+01   -1.922E+01   -1.919E+01   -1.916E+01   -1.913E+01   -1.910E+01   -1.907E+01   -1.904E+01   -1.901E+01
    -1.897E+01   -1.893E+01   -1.890E+01   -1.886E+01   -1.882E+01   -1.878E+01   -1.874E+01   -1.869E+01   -1.865E+01   -1.860E+01
    -1.856E+01   -1.851E+01   -1.846E+01   -1.841E+01   -1.836E+01   -1.831E+01   -1.826E+01   -1.821E+01   -1.816E+01   -1.810E+01
    -1.805E+01   -1.799E+01   -1.794E+01   -1.788E+01   -1.783E+01   -1.777E+01   -1.771E+01   -1.765E+01   -1.759E+01   -1.753E+01
    -1.747E+01   -1.741E+01   -1.735E+01   -1.728E+01   -1.722E+01   -1.716E+01   -1.709E+01   -1.703E+01   -1.696E+01   -1.690E+01
    -1.683E+01   -1.677E+01   -1.670E+01   -1.664E+01   -1.657E+01   -1.650E+01   -1.644E+01   -1.637E+01   -1.630E+01   -1.623E+01
    -1.616E+01   -1.610E+01   -1.603E+01   -1.596E+01   -1.589E+01   -1.582E+01   -1.575E+01   -1.568E+01   -1.561E+01   -1.554E+01
    -1.547E+01   -1.540E+01   -1.533E+01   -1.526E+01   -1.519E+01   -1.512E+01   -1.505E+01   -1.497E+01   -1.490E+01   -1.483E+01
    -1.476E+01   -1.468E+01   -1.461E+01   -1.454E+01   -1.446E+01   -1.439E+01   -1.431E+01   -1.424E+01   -1.416E+01   -1.409E+01
    -1.401E+01   -1.394E+01   -1.386E+01   -1.378E+01   -1.371E+01   -1.363E+01   -1.355E+01   -1.347E+01   -1.340E+01   -1.332E+01
    -1.324E+01   -1.316E+01   -1.308E+01   -1.300E+01   -1.292E+01   -1.284E+01   -1.276E+01   -1.268E+01   -1.260E+01   -1.251E+01
    -1.243E+01   -1.235E+01   -1.227E+01   -1.218E+01   -1.210E+01   -1.202E+01   -1.193E+01   -1.185E+01   -1.176E+01   -1.168E+01
    -1.159E+01   -1.151E+01   -1.142E+01   -1.133E+01   -1.125E+01   -1.116E+01   -1.107E+01   -1.098E+01   -1.090E+01   -1.081E+01
    -1.072E+01   -1.063E+01   -1.054E+01   -1.045E+01   -1.036E+01   -1.027E+01   -1.018E+01   -1.009E+01   -9.999E+00   -9.908E+00
    -9.816E+00   -9.724E+00   -9.632E+00   -9.540E+00   -9.447E+00   -9.354E+00   -9.261E+00   -9.167E+00   -9.073E+00   -8.979E+00
    -8.885E+00   -8.790E+00   -8.695E+00   -8.600E+00   -8.505E+00   -8.410E+00   -8.314E+00   -8.218E+00   -8.122E+00   -8.025E+00
    -7.929E+00   -7.832E+00   -7.735E+00   -7.638E+00   -7.541E+00   -7.443E+00   -7.345E+00   -7.248E+00   -7.150E+00   -7.051E+00
    -6.953E+00   -6.855E+00   -6.756E+00   -6.657E+00   -6.559E+00   -6.460E+00   -6.361E+00   -6.262E+00   -6.162E+00   -6.063E+00
    -5.964E+00   -5.864E+00   -5.765E+00   -5.666E+00   -5.566E+00   -5.466E+00   -5.367E+00   -5.267E+00   -5.168E+00   -5.068E+00
    -4.969E+00   -4.870E+00   -4.771E+00   -4.672E+00   -4.573E+00   -4.474E+00   -4.376E+00   -4.278E+00   -4.180E+00   -4.082E+00
    -3.985E+00   -3.888E+00   -3.791E+00   -3.694E+00   -3.598E+00   -3.502E+00   -3.407E+00   -3.312E+00   -3.217E+00   -3.123E+00
    -3.030E+00   -2.936E+00   -2.844E+00   -2.752E+00   -2.660E+00   -2.569E+00   -2.478E+00   -2.388E+00   -2.299E+00   -2.210E+00
    -2.121E+00   -2.034E+00   -1.947E+00   -1.860E+00   -1.775E+00   -1.690E+00   -1.606E+00   -1.522E+00   -1.439E+00   -1.357E+00
    -1.276E+00   -1.195E+00   -1.115E+00   -1.036E+00   -9.582E-01   -8.808E-01   -8.043E-01   -7.286E-01   -6.538E-01   -5.798E-01
    -5.067E-01   -4.345E-01   -3.632E-01   -2.929E-01   -2.234E-01   -1.549E-01   -8.735E-02   -2.074E-02    4.490E-02    1.096E-01
     1.732E-01    2.359E-01    2.976E-01    3.582E-01    4.179E-01    4.764E-01    5.340E-01    5.905E-01    6.459E-01    7.003E-01
     7.536E-01    8.058E-01    8.569E-01    9.069E-01    9.558E-01    1.004E+00    1.050E+00    1.096E+00    1.140E+00    1.183E+00
     1.226E+00    1.267E+00    1.306E+00    1.345E+00    1.382E+00    1.419E+00    1.454E+00    1.488E+00    1.520E+00    1.552E+00
     1.582E+00    1.611E+00    1.639E+00    1.666E+00    1.692E+00    1.716E+00    1.739E+00    1.761E+00    1.781E+00    1.801E+00
     1.819E+00    1.836E+00    1.852E+00    1.866E+00    1.879E+00    1.891E+00    1.902E+00    1.911E+00    1.920E+00    1.927E+00
     1.932E+00    1.937E+00    1.940E+00    1.942E+00    1.943E+00    1.943E+00    1.941E+00    1.938E+00
 Ala      Conc. = 2.29E+03
