 LCModel (Version 6.3-1L) Copyright: S.W. Provencher.          Ref.: Magn. Reson. Med. 30:672-679 (1993).                
 Slice#3 Row#12 Col#10  K_02_press_1_raw_act
 36 lines in following concentration table = NCONC+1
    Conc.  %SD /Cr+PCr  Metabolite                                         
    0.000 999%   0.000 Ala                                                 
    0.000 999%   0.000 Asp                                                 
    0.000 999%   0.000 Cr                                                  
 1.30E+03   4%   1.000 PCr                                                 
    0.000 999%   0.000 GABA                                                
    0.000 999%   0.000 Glc                                                 
  102.607 235% 7.9E-02 Gln                                                 
  875.872  30%   0.673 Glu                                                 
  382.075   5%   0.294 GPC                                                 
    0.000 999%   0.000 PCh                                                 
  232.015  27%   0.178 GSH                                                 
  235.600  91%   0.181 Ins                                                 
    0.000 999%   0.000 Lac                                                 
 1.77E+03   3%   1.360 NAA                                                 
    0.000 999%   0.000 NAAG                                                
   64.733  35% 5.0E-02 Scyllo                                              
   19.766 814% 1.5E-02 Tau                                                 
  357.863  23%   0.275 -CrCH2                                              
  382.075   5%   0.294 GPC+PCh                                             
 1.77E+03   3%   1.360 NAA+NAAG                                            
 1.30E+03   4%   1.000 Cr+PCr                                              
  978.479  44%   0.752 Glu+Gln                                             
 1.22E+03  31%   0.940 Lip13a                                              
    0.000 999%   0.000 Lip13b                                              
  380.078  56%   0.292 Lip09                                               
 1.11E+03  21%   0.853 MM09                                                
  139.248 102%   0.107 Lip20                                               
 1.60E+03  16%   1.227 MM20                                                
  668.599  32%   0.514 MM12                                                
    0.000 999%   0.000 MM14                                                
    0.000 999%   0.000 MM17                                                
 1.22E+03  31%   0.940 Lip13a+Lip13b                                       
 1.89E+03  16%   1.454 MM14+Lip13a+Lip13b+MM12                             
 1.49E+03  11%   1.146 MM09+Lip09                                          
 1.74E+03  14%   1.334 MM20+Lip20                                          
   6 lines in following misc. output table
  FWHM = 0.076 ppm    S/N =  11                                            
  Data shift = 0.046 ppm                                                   
  Ph: -56 deg     -19.1 deg/ppm                                            
  alphaB,S = 8.8E-01,   1.0E+02                                            
   14 spline knots.   Ns = 9(1)                                            
  (14) 6 infls.   ( 7) 1 extrs.                                            
  498 points on ppm-axis = NY
      4.000000     3.992357     3.984714     3.977070     3.969427     3.961784     3.954141     3.946497     3.938854     3.931211
      3.923568     3.915925     3.908281     3.900638     3.892995     3.885352     3.877708     3.870065     3.862422     3.854779
      3.847136     3.839492     3.831849     3.824206     3.816563     3.808919     3.801276     3.793633     3.785990     3.778347
      3.770703     3.763060     3.755417     3.747774     3.740130     3.732487     3.724844     3.717201     3.709558     3.701914
      3.694271     3.686628     3.678985     3.671341     3.663698     3.656055     3.648412     3.640769     3.633125     3.625482
      3.617839     3.610196     3.602552     3.594909     3.587266     3.579623     3.571980     3.564336     3.556693     3.549050
      3.541407     3.533763     3.526120     3.518477     3.510834     3.503191     3.495547     3.487904     3.480261     3.472618
      3.464974     3.457331     3.449688     3.442045     3.434402     3.426758     3.419115     3.411472     3.403829     3.396185
      3.388542     3.380899     3.373256     3.365613     3.357969     3.350326     3.342683     3.335040     3.327396     3.319753
      3.312110     3.304467     3.296824     3.289180     3.281537     3.273894     3.266251     3.258607     3.250964     3.243321
      3.235678     3.228034     3.220391     3.212748     3.205105     3.197462     3.189818     3.182175     3.174532     3.166889
      3.159245     3.151602     3.143959     3.136316     3.128673     3.121029     3.113386     3.105743     3.098100     3.090456
      3.082813     3.075170     3.067527     3.059884     3.052240     3.044597     3.036954     3.029311     3.021667     3.014024
      3.006381     2.998738     2.991095     2.983451     2.975808     2.968165     2.960522     2.952878     2.945235     2.937592
      2.929949     2.922306     2.914662     2.907019     2.899376     2.891733     2.884089     2.876446     2.868803     2.861160
      2.853517     2.845873     2.838230     2.830587     2.822944     2.815300     2.807657     2.800014     2.792371     2.784728
      2.777084     2.769441     2.761798     2.754155     2.746511     2.738868     2.731225     2.723582     2.715939     2.708295
      2.700652     2.693009     2.685366     2.677722     2.670079     2.662436     2.654793     2.647150     2.639506     2.631863
      2.624220     2.616577     2.608933     2.601290     2.593647     2.586004     2.578361     2.570717     2.563074     2.555431
      2.547788     2.540144     2.532501     2.524858     2.517215     2.509572     2.501928     2.494285     2.486642     2.478999
      2.471355     2.463712     2.456069     2.448426     2.440783     2.433139     2.425496     2.417853     2.410210     2.402566
      2.394923     2.387280     2.379637     2.371994     2.364350     2.356707     2.349064     2.341421     2.333777     2.326134
      2.318491     2.310848     2.303205     2.295561     2.287918     2.280275     2.272632     2.264988     2.257345     2.249702
      2.242059     2.234416     2.226772     2.219129     2.211486     2.203843     2.196199     2.188556     2.180913     2.173270
      2.165627     2.157983     2.150340     2.142697     2.135054     2.127410     2.119767     2.112124     2.104481     2.096838
      2.089194     2.081551     2.073908     2.066265     2.058621     2.050978     2.043335     2.035692     2.028049     2.020405
      2.012762     2.005119     1.997476     1.989833     1.982190     1.974546     1.966903     1.959260     1.951617     1.943974
      1.936331     1.928688     1.921045     1.913402     1.905759     1.898115     1.890472     1.882829     1.875186     1.867543
      1.859900     1.852257     1.844614     1.836971     1.829327     1.821684     1.814041     1.806398     1.798755     1.791112
      1.783469     1.775826     1.768183     1.760540     1.752896     1.745253     1.737610     1.729967     1.722324     1.714681
      1.707038     1.699395     1.691752     1.684108     1.676465     1.668822     1.661179     1.653536     1.645893     1.638250
      1.630607     1.622964     1.615321     1.607677     1.600034     1.592391     1.584748     1.577105     1.569462     1.561819
      1.554176     1.546533     1.538890     1.531246     1.523603     1.515960     1.508317     1.500674     1.493031     1.485388
      1.477745     1.470102     1.462458     1.454815     1.447172     1.439529     1.431886     1.424243     1.416600     1.408957
      1.401314     1.393671     1.386027     1.378384     1.370741     1.363098     1.355455     1.347812     1.340169     1.332526
      1.324883     1.317240     1.309596     1.301953     1.294310     1.286667     1.279024     1.271381     1.263738     1.256095
      1.248452     1.240808     1.233165     1.225522     1.217879     1.210236     1.202593     1.194950     1.187307     1.179664
      1.172021     1.164377     1.156734     1.149091     1.141448     1.133805     1.126162     1.118519     1.110876     1.103233
      1.095590     1.087946     1.080303     1.072660     1.065017     1.057374     1.049731     1.042088     1.034445     1.026802
      1.019158     1.011515     1.003872     0.996229     0.988586     0.980943     0.973300     0.965657     0.958014     0.950371
      0.942727     0.935084     0.927441     0.919798     0.912155     0.904512     0.896869     0.889226     0.881583     0.873940
      0.866296     0.858653     0.851010     0.843367     0.835724     0.828081     0.820438     0.812795     0.805152     0.797508
      0.789865     0.782222     0.774579     0.766936     0.759293     0.751650     0.744007     0.736364     0.728721     0.721077
      0.713434     0.705791     0.698148     0.690505     0.682862     0.675219     0.667576     0.659933     0.652290     0.644646
      0.637003     0.629360     0.621717     0.614074     0.606431     0.598788     0.591145     0.583502     0.575858     0.568215
      0.560572     0.552929     0.545286     0.537643     0.530000     0.522357     0.514714     0.507071     0.499427     0.491784
      0.484141     0.476498     0.468855     0.461212     0.453569     0.445925     0.438282     0.430639     0.422996     0.415353
      0.407710     0.400067     0.392424     0.384780     0.377137     0.369494     0.361851     0.354208     0.346565     0.338922
      0.331278     0.323635     0.315992     0.308349     0.300706     0.293063     0.285420     0.277777     0.270133     0.262490
      0.254847     0.247204     0.239561     0.231918     0.224275     0.216631     0.208988     0.201345
 NY phased data points follow
  -1.41015E+01 -1.19037E+01 -1.11829E+01 -1.13396E+01 -4.09674E+00 -5.51967E+00 -8.38018E-01  1.67578E+00  3.42154E+00  1.69376E+00
  -3.03658E-02 -1.95344E+00 -4.03422E+00 -6.26894E+00 -9.80540E+00 -8.88670E+00 -1.23695E+01 -1.43770E+01 -1.48613E+01 -1.53596E+01
  -1.46443E+01 -1.35103E+01 -1.61070E+01 -1.40662E+01 -1.47326E+01 -1.35138E+01 -1.26499E+01 -1.13237E+01 -1.25362E+01 -1.30489E+01
  -1.24637E+01 -9.83311E+00 -1.06147E+01 -7.46086E+00 -1.01555E+01 -1.18073E+01 -9.94190E+00 -1.12922E+01 -1.31692E+01 -1.24696E+01
  -1.24807E+01 -9.43830E+00 -1.14020E+01 -1.20675E+01 -9.62463E+00 -8.44315E+00 -1.02619E+01 -8.18818E+00 -9.60490E+00 -1.04531E+01
  -1.04026E+01 -1.11293E+01 -1.01984E+01 -1.24050E+01 -1.13786E+01 -1.03592E+01 -1.17573E+01 -1.31473E+01 -1.20466E+01 -1.37561E+01
  -1.63476E+01 -1.42664E+01 -1.43838E+01 -1.67727E+01 -1.69512E+01 -1.70586E+01 -1.43357E+01 -1.61391E+01 -1.85556E+01 -1.32470E+01
  -1.45749E+01 -1.22941E+01 -1.63118E+01 -1.25584E+01 -1.51065E+01 -1.34114E+01 -1.32369E+01 -1.26105E+01 -1.44853E+01 -1.03806E+01
  -1.12904E+01 -1.20395E+01 -1.08659E+01 -1.00824E+01 -1.08652E+01 -1.01191E+01 -1.32172E+01 -9.99868E+00 -9.85610E+00 -1.02911E+01
  -8.59717E+00 -6.43711E+00 -9.57561E+00 -7.51287E+00 -5.51915E+00 -6.38319E+00 -5.65266E-01  2.56150E+00  6.30808E+00  1.40242E+01
   1.24616E+01  1.44584E+01  1.24693E+01  1.05532E+01  9.64462E+00  6.74918E+00  4.17109E+00  6.24531E+00  1.26804E+00 -3.62751E+00
  -4.45105E+00 -5.09964E+00 -6.41664E+00 -4.83505E+00 -7.85557E+00 -9.91852E+00 -7.85723E+00 -2.03436E+00 -5.63451E+00 -4.33005E+00
  -2.92802E+00  4.25759E+00  5.60007E+00  1.25897E+01  1.69029E+01  1.89992E+01  1.95226E+01  1.83745E+01  1.80867E+01  1.70911E+01
   1.18642E+01  9.41702E+00  6.92637E+00  4.73993E-01 -1.25850E-01 -2.71430E+00 -6.06517E+00 -6.11759E+00 -7.49265E+00 -5.69418E+00
  -7.79952E+00 -9.97377E+00 -7.49935E+00 -1.20875E+01 -1.16108E+01 -9.56037E+00 -8.75154E+00 -1.11389E+01 -1.04582E+01 -1.15330E+01
  -9.18686E+00 -1.00662E+01 -1.11218E+01 -1.05011E+01 -9.46420E+00 -1.00622E+01 -9.32441E+00 -9.27287E+00 -1.14075E+01 -1.14151E+01
  -1.28226E+01 -1.14584E+01 -1.24019E+01 -1.08936E+01 -1.23444E+01 -1.32977E+01 -1.27080E+01 -1.46009E+01 -1.25997E+01 -1.43790E+01
  -1.59567E+01 -1.60051E+01 -1.89651E+01 -1.77080E+01 -1.75607E+01 -1.98772E+01 -1.51044E+01 -1.60391E+01 -1.68302E+01 -1.54038E+01
  -1.78433E+01 -1.79520E+01 -1.39613E+01 -1.70359E+01 -1.78722E+01 -1.35481E+01 -1.35772E+01 -1.02733E+01 -8.91086E+00 -1.06928E+01
  -8.21131E+00 -9.19767E+00 -8.92450E+00 -9.13897E+00 -8.27057E+00 -8.59317E+00 -7.58469E+00 -1.07173E+01 -1.02824E+01 -1.07088E+01
  -7.10047E+00 -9.04896E+00 -1.05989E+01 -9.67188E+00 -1.10353E+01 -9.50187E+00 -1.05862E+01 -1.19624E+01 -1.44760E+01 -1.36331E+01
  -8.66082E+00 -8.55895E+00 -9.98597E+00 -7.79235E+00 -6.52024E+00 -8.17888E+00 -6.49396E+00 -8.95366E+00 -8.01677E+00 -8.91806E+00
  -1.08667E+01 -1.17997E+01 -1.26577E+01 -1.24726E+01 -1.14110E+01 -9.85912E+00 -7.37866E+00 -7.66323E+00 -7.81466E+00 -6.93190E+00
  -3.83000E+00 -6.15168E+00 -7.05435E+00 -8.79575E+00 -6.24895E+00 -5.19132E+00 -6.37913E+00 -6.06911E+00 -8.20488E+00 -9.19617E+00
  -9.78025E+00 -9.16532E+00 -4.97314E+00 -8.80682E+00 -7.75737E+00 -4.79733E+00 -4.00243E+00 -7.02528E-01 -1.14495E+00 -3.51035E+00
  -1.80305E+00  2.63394E+00  2.61525E+00  6.32282E+00  1.01133E+01  1.66800E+01  2.32497E+01  3.02244E+01  3.61336E+01  4.04286E+01
   4.09686E+01  3.75880E+01  3.55929E+01  2.60623E+01  2.24104E+01  1.59282E+01  9.09061E+00  3.04507E+00 -4.60203E-01 -2.81325E+00
  -6.25929E+00 -5.50321E+00 -5.75010E+00 -6.30172E+00 -8.91447E+00 -6.02535E+00 -5.69145E+00 -7.16719E+00 -8.27204E+00 -5.10763E+00
  -9.24993E+00 -7.45192E+00 -1.07599E+01 -1.05238E+01 -8.76898E+00 -9.79192E+00 -8.75469E+00 -1.01170E+01 -8.24373E+00 -1.01375E+01
  -1.00488E+01 -8.01874E+00 -8.24843E+00 -1.13589E+01 -1.15864E+01 -9.72028E+00 -1.15431E+01 -9.16424E+00 -1.10482E+01 -9.82614E+00
  -6.31633E+00 -5.95019E+00 -7.77049E+00 -7.96754E+00 -9.58484E+00 -7.09123E+00 -1.07854E+01 -8.72876E+00 -6.04841E+00 -7.32731E+00
  -7.31196E+00 -6.68828E+00 -8.38976E+00 -8.37194E+00 -1.10445E+01 -1.04392E+01 -7.47424E+00 -9.27415E+00 -9.37325E+00 -1.14333E+01
  -6.86623E+00 -3.75728E+00 -4.78481E+00 -4.20295E+00 -3.34544E+00 -5.48952E+00 -5.05636E+00 -2.44240E+00 -6.21559E+00 -5.04553E+00
  -2.73396E+00 -4.61248E+00 -6.02274E+00 -7.27702E+00 -6.48506E+00 -9.13406E+00 -8.74993E+00 -4.77155E+00 -7.04157E+00 -5.15142E+00
  -4.30047E+00 -6.87614E+00 -2.06555E+00  3.14252E-01 -1.19374E+00 -1.92358E+00 -1.79795E+00  2.41777E+00 -3.77881E-01  2.09157E+00
   1.20432E+00  3.45085E+00  1.92717E+00  4.05274E-01  4.50221E-01 -8.26349E-01 -1.71534E+00 -9.69164E-01  5.17442E-01  2.63450E-01
   3.16171E+00  2.24841E+00 -2.65373E-01  4.05268E+00  4.62671E+00  4.04496E+00  6.47347E+00  7.18429E+00  6.06887E+00  4.96930E+00
   4.22582E+00  2.45839E+00  4.15420E+00  4.20005E-01  2.78679E+00  2.68717E+00 -5.01002E-03  1.05018E+00 -2.03788E+00  3.75853E-01
  -2.24431E+00  3.47592E+00  3.20797E+00  3.14803E+00  1.43757E+00  3.75650E+00  4.93764E+00  7.03076E+00  4.08256E+00  1.95524E+00
   1.95515E+00  5.02488E+00  3.47974E+00  3.82700E+00  8.64157E+00  2.69025E+00  4.51096E+00  2.89846E+00  6.31519E+00  1.35032E+00
   4.61781E+00  7.43986E+00  6.60874E+00  2.73671E+00  4.18140E+00  6.39334E+00  7.40100E+00  8.33585E+00  4.18610E+00  8.53287E+00
   7.18561E+00  9.02937E+00  8.52504E+00  8.76188E+00  6.59409E+00  8.42062E+00  7.94178E+00  7.07353E+00  6.08147E+00  5.60421E+00
   7.37919E+00  5.23718E+00  6.55603E+00  3.48712E+00  5.16482E+00  3.67679E+00  3.89868E+00  6.95979E+00  3.08800E+00  2.35514E+00
   4.74860E+00  6.54125E+00  3.96778E+00  4.36843E+00  2.16605E+00  5.08633E+00  2.45854E+00  4.84204E+00  2.87751E+00  2.34704E+00
   3.73060E+00  2.24647E+00  5.54094E+00  4.33898E+00  5.54322E+00  7.06176E+00  6.43746E+00  4.28304E+00  2.50309E+00  5.23645E+00
   1.79588E+00  3.46785E+00  2.90559E+00  2.64820E+00  4.00899E+00  3.06033E+00  5.90269E+00  4.23078E+00  6.04615E+00  5.04204E+00
   5.97014E+00  2.70429E+00  2.85847E+00  4.53004E+00  5.26903E+00  4.36421E+00  2.18191E+00  3.15194E+00 -1.49200E+00  3.73081E+00
   2.37149E+00  3.08999E+00  2.71916E+00  1.57612E+00  3.27426E+00  1.58089E+00  1.44812E+00  4.14487E+00  1.76855E+00  2.93699E+00
   5.12242E+00  4.76164E+00  5.02026E+00  2.30265E+00  4.25764E+00  2.44431E+00  4.66887E+00  2.96972E+00  2.45061E+00  4.96846E+00
   2.50327E+00  2.68635E+00  3.25635E+00  1.02107E+00  3.18243E+00  2.11351E+00  2.99805E+00  2.96347E+00
 NY points of the fit to the data follow
  -1.35529E+01 -1.22267E+01 -1.07526E+01 -8.71563E+00 -6.17579E+00 -3.50317E+00 -1.18211E+00  3.70953E-01  9.61482E-01  6.53473E-01
  -3.04786E-01 -1.73807E+00 -3.41590E+00 -5.13619E+00 -6.98277E+00 -8.87112E+00 -1.04295E+01 -1.15634E+01 -1.25627E+01 -1.34843E+01
  -1.39160E+01 -1.39513E+01 -1.38546E+01 -1.37721E+01 -1.35520E+01 -1.31287E+01 -1.25125E+01 -1.18021E+01 -1.10722E+01 -1.04387E+01
  -1.00209E+01 -9.86178E+00 -9.95105E+00 -1.02401E+01 -1.06322E+01 -1.11191E+01 -1.16321E+01 -1.20351E+01 -1.22417E+01 -1.23309E+01
  -1.23804E+01 -1.23211E+01 -1.21187E+01 -1.18767E+01 -1.16373E+01 -1.14196E+01 -1.12547E+01 -1.12266E+01 -1.13412E+01 -1.15342E+01
  -1.17567E+01 -1.20178E+01 -1.22983E+01 -1.25378E+01 -1.27304E+01 -1.29044E+01 -1.30325E+01 -1.31088E+01 -1.31638E+01 -1.32220E+01
  -1.32740E+01 -1.33273E+01 -1.33790E+01 -1.34110E+01 -1.34276E+01 -1.34313E+01 -1.34124E+01 -1.33691E+01 -1.33085E+01 -1.32434E+01
  -1.31752E+01 -1.31092E+01 -1.30500E+01 -1.29974E+01 -1.29548E+01 -1.29184E+01 -1.28607E+01 -1.26975E+01 -1.24494E+01 -1.22332E+01
  -1.19573E+01 -1.15597E+01 -1.10791E+01 -1.05938E+01 -1.02035E+01 -9.97770E+00 -9.92431E+00 -9.99839E+00 -1.01495E+01 -1.03392E+01
  -1.04924E+01 -1.05389E+01 -1.02342E+01 -8.82677E+00 -6.86580E+00 -4.93858E+00 -2.33038E+00  1.34218E+00  5.73400E+00  1.00038E+01
   1.32651E+01  1.49582E+01  1.49877E+01  1.36617E+01  1.13464E+01  8.39453E+00  5.26916E+00  2.04637E+00 -1.32101E+00 -4.33211E+00
  -6.53760E+00 -8.21977E+00 -9.72975E+00 -1.05793E+01 -1.07118E+01 -1.05835E+01 -1.02095E+01 -9.06104E+00 -6.65207E+00 -4.23448E+00
  -1.58701E+00  2.14349E+00  6.94121E+00  1.21436E+01  1.67720E+01  1.99389E+01  2.11780E+01  2.05776E+01  1.86119E+01  1.56437E+01
   1.21241E+01  8.46325E+00  4.51053E+00  4.85218E-01 -2.88645E+00 -5.37786E+00 -7.45985E+00 -9.15812E+00 -9.84719E+00 -1.00040E+01
  -1.00410E+01 -1.00418E+01 -1.00404E+01 -1.00650E+01 -1.01157E+01 -1.01748E+01 -1.02518E+01 -1.03590E+01 -1.04818E+01 -1.06109E+01
  -1.07350E+01 -1.08654E+01 -1.10439E+01 -1.11790E+01 -1.12791E+01 -1.13802E+01 -1.14896E+01 -1.16778E+01 -1.18687E+01 -1.19780E+01
  -1.20014E+01 -1.19827E+01 -1.19870E+01 -1.20521E+01 -1.21874E+01 -1.23891E+01 -1.26295E+01 -1.29202E+01 -1.31985E+01 -1.34432E+01
  -1.37221E+01 -1.40317E+01 -1.43588E+01 -1.45716E+01 -1.46668E+01 -1.46917E+01 -1.46634E+01 -1.46632E+01 -1.46967E+01 -1.46448E+01
  -1.45415E+01 -1.44226E+01 -1.42597E+01 -1.40410E+01 -1.37373E+01 -1.33001E+01 -1.26988E+01 -1.20133E+01 -1.13514E+01 -1.08201E+01
  -1.03712E+01 -9.99514E+00 -9.76184E+00 -9.67553E+00 -9.68896E+00 -9.74668E+00 -9.81310E+00 -9.82237E+00 -9.77641E+00 -9.64128E+00
  -9.40086E+00 -9.19401E+00 -9.08204E+00 -9.09450E+00 -9.27522E+00 -9.55107E+00 -9.91348E+00 -1.02273E+01 -1.04615E+01 -1.06900E+01
  -1.07161E+01 -1.04377E+01 -9.96023E+00 -9.51911E+00 -9.27991E+00 -9.21837E+00 -9.36740E+00 -9.82076E+00 -1.04805E+01 -1.11605E+01
  -1.16694E+01 -1.19283E+01 -1.19121E+01 -1.16208E+01 -1.11004E+01 -1.04481E+01 -9.81589E+00 -9.21016E+00 -8.58367E+00 -8.00129E+00
  -7.55518E+00 -7.23386E+00 -6.93245E+00 -6.63647E+00 -6.46930E+00 -6.40405E+00 -6.37373E+00 -6.38037E+00 -6.43361E+00 -6.47888E+00
  -6.45476E+00 -6.31800E+00 -6.06145E+00 -5.73146E+00 -5.35166E+00 -4.94751E+00 -4.56027E+00 -4.23353E+00 -3.93361E+00 -3.55791E+00
  -2.62580E+00  3.35530E-01  3.79785E+00  6.92617E+00  1.12672E+01  1.73731E+01  2.45758E+01  3.15461E+01  3.68158E+01  3.94482E+01
   3.93017E+01  3.69416E+01  3.29249E+01  2.78186E+01  2.24921E+01  1.69528E+01  1.10495E+01  5.76891E+00  1.91207E+00 -1.15294E+00
  -4.09490E+00 -5.80258E+00 -6.35856E+00 -6.65208E+00 -6.87295E+00 -7.05234E+00 -7.20642E+00 -7.36159E+00 -7.50842E+00 -7.64734E+00
  -7.78170E+00 -7.90629E+00 -8.01503E+00 -8.11328E+00 -8.20266E+00 -8.27841E+00 -8.33713E+00 -8.38149E+00 -8.41544E+00 -8.44125E+00
  -8.45785E+00 -8.46566E+00 -8.46777E+00 -8.46453E+00 -8.45503E+00 -8.43971E+00 -8.41927E+00 -8.39433E+00 -8.36451E+00 -8.33059E+00
  -8.29323E+00 -8.25276E+00 -8.20895E+00 -8.16249E+00 -8.11339E+00 -8.06203E+00 -8.00819E+00 -7.95203E+00 -7.89319E+00 -7.83201E+00
  -7.76829E+00 -7.70217E+00 -7.63328E+00 -7.56177E+00 -7.48723E+00 -7.40973E+00 -7.32900E+00 -7.24518E+00 -7.15780E+00 -7.06681E+00
  -6.97173E+00 -6.87258E+00 -6.76886E+00 -6.66042E+00 -6.54656E+00 -6.42699E+00 -6.30100E+00 -6.16831E+00 -6.02811E+00 -5.87991E+00
  -5.72268E+00 -5.55588E+00 -5.37853E+00 -5.19009E+00 -4.98952E+00 -4.77620E+00 -4.54911E+00 -4.30784E+00 -4.05167E+00 -3.78051E+00
  -3.49393E+00 -3.19218E+00 -2.87539E+00 -2.54450E+00 -2.20043E+00 -1.84484E+00 -1.47933E+00 -1.10633E+00 -7.28287E-01 -3.48470E-01
   2.99532E-02  4.03172E-01  7.67652E-01  1.11929E+00  1.45435E+00  1.76873E+00  2.05898E+00  2.32157E+00  2.55381E+00  2.75304E+00
   2.91754E+00  3.04584E+00  3.13763E+00  3.19294E+00  3.21295E+00  3.19910E+00  3.15390E+00  3.08012E+00  2.98153E+00  2.86196E+00
   2.72599E+00  2.57798E+00  2.42280E+00  2.26500E+00  2.10944E+00  1.96040E+00  1.82224E+00  1.69857E+00  1.59303E+00  1.50852E+00
   1.44793E+00  1.41335E+00  1.40681E+00  1.42960E+00  1.48307E+00  1.56788E+00  1.68476E+00  1.83371E+00  2.01475E+00  2.22715E+00
   2.47019E+00  2.74238E+00  3.04205E+00  3.36658E+00  3.71312E+00  4.07780E+00  4.45654E+00  4.84426E+00  5.23564E+00  5.62445E+00
   6.00447E+00  6.36895E+00  6.71148E+00  7.02547E+00  7.30508E+00  7.54470E+00  7.73999E+00  7.88725E+00  7.98434E+00  8.03002E+00
   8.02464E+00  7.96947E+00  7.86738E+00  7.72196E+00  7.53803E+00  7.32075E+00  7.07604E+00  6.80973E+00  6.52806E+00  6.23673E+00
   5.94144E+00  5.64699E+00  5.35793E+00  5.07783E+00  4.80996E+00  4.55654E+00  4.31946E+00  4.09967E+00  3.89793E+00  3.71422E+00
   3.54853E+00  3.40017E+00  3.26856E+00  3.15260E+00  3.05146E+00  2.96393E+00  2.88913E+00  2.82582E+00  2.77314E+00  2.72994E+00
   2.69546E+00  2.66873E+00  2.64915E+00  2.63584E+00  2.62830E+00  2.62579E+00  2.62794E+00  2.63417E+00  2.64420E+00  2.65750E+00
   2.67385E+00  2.69279E+00  2.71425E+00  2.73783E+00  2.76347E+00  2.79082E+00  2.81986E+00  2.85029E+00  2.88216E+00  2.91519E+00
   2.94943E+00  2.98461E+00  3.02078E+00  3.05773E+00  3.09558E+00  3.13409E+00  3.17334E+00  3.21311E+00  3.25353E+00  3.29441E+00
   3.33588E+00  3.37774E+00  3.42010E+00  3.46277E+00  3.50588E+00  3.54930E+00  3.59314E+00  3.63722E+00  3.68167E+00  3.72631E+00
   3.77131E+00  3.81652E+00  3.86206E+00  3.90777E+00  3.95377E+00  3.99993E+00  4.04640E+00  4.09305E+00  4.13998E+00  4.18704E+00
   4.23438E+00  4.28187E+00  4.32966E+00  4.37760E+00  4.42583E+00  4.47418E+00  4.52281E+00  4.57162E+00
 NY background values follow
    -1.793E+01   -1.788E+01   -1.783E+01   -1.777E+01   -1.772E+01   -1.766E+01   -1.761E+01   -1.755E+01   -1.750E+01   -1.744E+01
    -1.739E+01   -1.733E+01   -1.728E+01   -1.722E+01   -1.717E+01   -1.711E+01   -1.706E+01   -1.701E+01   -1.695E+01   -1.690E+01
    -1.684E+01   -1.679E+01   -1.673E+01   -1.668E+01   -1.662E+01   -1.657E+01   -1.652E+01   -1.646E+01   -1.641E+01   -1.635E+01
    -1.630E+01   -1.625E+01   -1.619E+01   -1.614E+01   -1.609E+01   -1.603E+01   -1.598E+01   -1.593E+01   -1.587E+01   -1.582E+01
    -1.577E+01   -1.572E+01   -1.566E+01   -1.561E+01   -1.556E+01   -1.551E+01   -1.545E+01   -1.540E+01   -1.535E+01   -1.530E+01
    -1.525E+01   -1.520E+01   -1.515E+01   -1.509E+01   -1.504E+01   -1.499E+01   -1.494E+01   -1.489E+01   -1.484E+01   -1.479E+01
    -1.474E+01   -1.470E+01   -1.465E+01   -1.460E+01   -1.455E+01   -1.450E+01   -1.445E+01   -1.441E+01   -1.436E+01   -1.431E+01
    -1.427E+01   -1.422E+01   -1.418E+01   -1.413E+01   -1.408E+01   -1.404E+01   -1.400E+01   -1.395E+01   -1.391E+01   -1.386E+01
    -1.382E+01   -1.378E+01   -1.374E+01   -1.370E+01   -1.365E+01   -1.361E+01   -1.357E+01   -1.353E+01   -1.349E+01   -1.345E+01
    -1.342E+01   -1.338E+01   -1.334E+01   -1.330E+01   -1.327E+01   -1.323E+01   -1.319E+01   -1.316E+01   -1.312E+01   -1.309E+01
    -1.305E+01   -1.302E+01   -1.299E+01   -1.296E+01   -1.292E+01   -1.289E+01   -1.286E+01   -1.283E+01   -1.280E+01   -1.277E+01
    -1.274E+01   -1.271E+01   -1.269E+01   -1.266E+01   -1.263E+01   -1.261E+01   -1.258E+01   -1.256E+01   -1.253E+01   -1.251E+01
    -1.248E+01   -1.246E+01   -1.244E+01   -1.242E+01   -1.239E+01   -1.237E+01   -1.235E+01   -1.233E+01   -1.231E+01   -1.230E+01
    -1.228E+01   -1.226E+01   -1.224E+01   -1.223E+01   -1.221E+01   -1.220E+01   -1.218E+01   -1.217E+01   -1.216E+01   -1.214E+01
    -1.213E+01   -1.212E+01   -1.211E+01   -1.210E+01   -1.209E+01   -1.208E+01   -1.207E+01   -1.206E+01   -1.205E+01   -1.204E+01
    -1.204E+01   -1.203E+01   -1.202E+01   -1.202E+01   -1.201E+01   -1.200E+01   -1.200E+01   -1.199E+01   -1.199E+01   -1.198E+01
    -1.198E+01   -1.197E+01   -1.197E+01   -1.197E+01   -1.196E+01   -1.196E+01   -1.196E+01   -1.195E+01   -1.195E+01   -1.195E+01
    -1.194E+01   -1.194E+01   -1.194E+01   -1.193E+01   -1.193E+01   -1.193E+01   -1.192E+01   -1.192E+01   -1.192E+01   -1.191E+01
    -1.191E+01   -1.191E+01   -1.190E+01   -1.190E+01   -1.190E+01   -1.189E+01   -1.189E+01   -1.189E+01   -1.188E+01   -1.188E+01
    -1.187E+01   -1.187E+01   -1.186E+01   -1.186E+01   -1.185E+01   -1.185E+01   -1.184E+01   -1.184E+01   -1.183E+01   -1.183E+01
    -1.182E+01   -1.181E+01   -1.181E+01   -1.180E+01   -1.179E+01   -1.179E+01   -1.178E+01   -1.177E+01   -1.177E+01   -1.176E+01
    -1.175E+01   -1.174E+01   -1.173E+01   -1.173E+01   -1.172E+01   -1.171E+01   -1.170E+01   -1.169E+01   -1.168E+01   -1.167E+01
    -1.166E+01   -1.165E+01   -1.164E+01   -1.163E+01   -1.162E+01   -1.161E+01   -1.160E+01   -1.159E+01   -1.157E+01   -1.156E+01
    -1.155E+01   -1.154E+01   -1.152E+01   -1.151E+01   -1.150E+01   -1.148E+01   -1.147E+01   -1.145E+01   -1.144E+01   -1.142E+01
    -1.141E+01   -1.139E+01   -1.138E+01   -1.136E+01   -1.134E+01   -1.132E+01   -1.130E+01   -1.129E+01   -1.127E+01   -1.125E+01
    -1.123E+01   -1.121E+01   -1.119E+01   -1.116E+01   -1.114E+01   -1.112E+01   -1.110E+01   -1.107E+01   -1.105E+01   -1.102E+01
    -1.100E+01   -1.097E+01   -1.095E+01   -1.092E+01   -1.089E+01   -1.086E+01   -1.083E+01   -1.080E+01   -1.077E+01   -1.074E+01
    -1.071E+01   -1.068E+01   -1.065E+01   -1.061E+01   -1.058E+01   -1.054E+01   -1.051E+01   -1.047E+01   -1.043E+01   -1.039E+01
    -1.036E+01   -1.032E+01   -1.028E+01   -1.024E+01   -1.019E+01   -1.015E+01   -1.011E+01   -1.007E+01   -1.002E+01   -9.978E+00
    -9.932E+00   -9.886E+00   -9.840E+00   -9.792E+00   -9.744E+00   -9.696E+00   -9.647E+00   -9.597E+00   -9.546E+00   -9.495E+00
    -9.443E+00   -9.391E+00   -9.338E+00   -9.284E+00   -9.230E+00   -9.175E+00   -9.119E+00   -9.063E+00   -9.006E+00   -8.949E+00
    -8.891E+00   -8.832E+00   -8.773E+00   -8.713E+00   -8.653E+00   -8.592E+00   -8.530E+00   -8.468E+00   -8.405E+00   -8.341E+00
    -8.277E+00   -8.213E+00   -8.148E+00   -8.082E+00   -8.016E+00   -7.949E+00   -7.882E+00   -7.814E+00   -7.746E+00   -7.678E+00
    -7.609E+00   -7.539E+00   -7.469E+00   -7.399E+00   -7.328E+00   -7.256E+00   -7.185E+00   -7.113E+00   -7.040E+00   -6.967E+00
    -6.894E+00   -6.821E+00   -6.747E+00   -6.672E+00   -6.598E+00   -6.523E+00   -6.448E+00   -6.373E+00   -6.297E+00   -6.221E+00
    -6.145E+00   -6.068E+00   -5.991E+00   -5.914E+00   -5.837E+00   -5.760E+00   -5.682E+00   -5.604E+00   -5.527E+00   -5.448E+00
    -5.370E+00   -5.292E+00   -5.213E+00   -5.135E+00   -5.056E+00   -4.977E+00   -4.898E+00   -4.819E+00   -4.740E+00   -4.660E+00
    -4.581E+00   -4.502E+00   -4.422E+00   -4.343E+00   -4.263E+00   -4.184E+00   -4.104E+00   -4.024E+00   -3.945E+00   -3.865E+00
    -3.785E+00   -3.706E+00   -3.626E+00   -3.546E+00   -3.467E+00   -3.387E+00   -3.308E+00   -3.228E+00   -3.149E+00   -3.070E+00
    -2.990E+00   -2.911E+00   -2.832E+00   -2.753E+00   -2.674E+00   -2.596E+00   -2.517E+00   -2.438E+00   -2.360E+00   -2.282E+00
    -2.204E+00   -2.126E+00   -2.048E+00   -1.970E+00   -1.893E+00   -1.816E+00   -1.739E+00   -1.662E+00   -1.585E+00   -1.509E+00
    -1.433E+00   -1.357E+00   -1.281E+00   -1.206E+00   -1.130E+00   -1.055E+00   -9.804E-01   -9.059E-01   -8.316E-01   -7.575E-01
    -6.838E-01   -6.102E-01   -5.370E-01   -4.640E-01   -3.913E-01   -3.189E-01   -2.467E-01   -1.749E-01   -1.033E-01   -3.208E-02
     3.887E-02    1.095E-01    1.799E-01    2.499E-01    3.196E-01    3.890E-01    4.580E-01    5.267E-01    5.951E-01    6.632E-01
     7.309E-01    7.982E-01    8.652E-01    9.318E-01    9.981E-01    1.064E+00    1.130E+00    1.195E+00    1.260E+00    1.324E+00
     1.388E+00    1.452E+00    1.515E+00    1.578E+00    1.640E+00    1.702E+00    1.764E+00    1.825E+00    1.886E+00    1.947E+00
     2.007E+00    2.067E+00    2.127E+00    2.186E+00    2.245E+00    2.304E+00    2.363E+00    2.421E+00    2.479E+00    2.537E+00
     2.595E+00    2.652E+00    2.709E+00    2.766E+00    2.823E+00    2.880E+00    2.936E+00    2.993E+00    3.049E+00    3.105E+00
     3.161E+00    3.217E+00    3.273E+00    3.328E+00    3.384E+00    3.439E+00    3.495E+00    3.550E+00    3.605E+00    3.661E+00
     3.716E+00    3.771E+00    3.827E+00    3.882E+00    3.937E+00    3.992E+00    4.048E+00    4.103E+00
 PCr      Conc. = 1.30E+03
