 LCModel (Version 6.3-1L) Copyright: S.W. Provencher.          Ref.: Magn. Reson. Med. 30:672-679 (1993).                
 Slice#2 Row#6 Col#11  K_02_press_1_raw_act
 36 lines in following concentration table = NCONC+1
    Conc.  %SD /Cr+PCr  Metabolite                                         
  132.464  99% 7.2E-02 Ala                                                 
    0.000 999%   0.000 Asp                                                 
   97.742 376% 5.3E-02 Cr                                                  
 1.74E+03  22%   0.947 PCr                                                 
    0.000 999%   0.000 GABA                                                
    0.000 999%   0.000 Glc                                                 
  844.228  31%   0.458 Gln                                                 
 1.94E+03  15%   1.055 Glu                                                 
  622.446   4%   0.338 GPC                                                 
    0.000 999%   0.000 PCh                                                 
  305.173  28%   0.166 GSH                                                 
 1.06E+03  28%   0.577 Ins                                                 
    0.000 999%   0.000 Lac                                                 
 3.38E+03   5%   1.838 NAA                                                 
  172.365 104% 9.4E-02 NAAG                                                
   86.748  38% 4.7E-02 Scyllo                                              
    0.000 999%   0.000 Tau                                                 
 1.17E+03  12%   0.636 -CrCH2                                              
  622.446   4%   0.338 GPC+PCh                                             
 3.56E+03   3%   1.931 NAA+NAAG                                            
 1.84E+03   4%   1.000 Cr+PCr                                              
 2.79E+03  15%   1.513 Glu+Gln                                             
  900.468  95%   0.489 Lip13a                                              
  292.641 167%   0.159 Lip13b                                              
    0.000 999%   0.000 Lip09                                               
 2.72E+03  12%   1.478 MM09                                                
  231.510  82%   0.126 Lip20                                               
 5.85E+03  10%   3.175 MM20                                                
  829.889  31%   0.451 MM12                                                
 4.66E+03  15%   2.531 MM14                                                
 2.70E+03  18%   1.465 MM17                                                
 1.19E+03  49%   0.648 Lip13a+Lip13b                                       
 6.68E+03  10%   3.630 MM14+Lip13a+Lip13b+MM12                             
 2.72E+03  12%   1.478 MM09+Lip09                                          
 6.08E+03  10%   3.301 MM20+Lip20                                          
   6 lines in following misc. output table
  FWHM = 0.046 ppm    S/N =  16                                            
  Data shift = 0.008 ppm                                                   
  Ph: -23 deg      -8.4 deg/ppm                                            
  alphaB,S = 7.0E-01,   1.4E+02                                            
   14 spline knots.   Ns = 7(1)                                            
  ( 6) 2 infls.   ( 5) 1 extrs.                                            
  498 points on ppm-axis = NY
      4.000000     3.992357     3.984714     3.977070     3.969427     3.961784     3.954141     3.946497     3.938854     3.931211
      3.923568     3.915925     3.908281     3.900638     3.892995     3.885352     3.877708     3.870065     3.862422     3.854779
      3.847136     3.839492     3.831849     3.824206     3.816563     3.808919     3.801276     3.793633     3.785990     3.778347
      3.770703     3.763060     3.755417     3.747774     3.740130     3.732487     3.724844     3.717201     3.709558     3.701914
      3.694271     3.686628     3.678985     3.671341     3.663698     3.656055     3.648412     3.640769     3.633125     3.625482
      3.617839     3.610196     3.602552     3.594909     3.587266     3.579623     3.571980     3.564336     3.556693     3.549050
      3.541407     3.533763     3.526120     3.518477     3.510834     3.503191     3.495547     3.487904     3.480261     3.472618
      3.464974     3.457331     3.449688     3.442045     3.434402     3.426758     3.419115     3.411472     3.403829     3.396185
      3.388542     3.380899     3.373256     3.365613     3.357969     3.350326     3.342683     3.335040     3.327396     3.319753
      3.312110     3.304467     3.296824     3.289180     3.281537     3.273894     3.266251     3.258607     3.250964     3.243321
      3.235678     3.228034     3.220391     3.212748     3.205105     3.197462     3.189818     3.182175     3.174532     3.166889
      3.159245     3.151602     3.143959     3.136316     3.128673     3.121029     3.113386     3.105743     3.098100     3.090456
      3.082813     3.075170     3.067527     3.059884     3.052240     3.044597     3.036954     3.029311     3.021667     3.014024
      3.006381     2.998738     2.991095     2.983451     2.975808     2.968165     2.960522     2.952878     2.945235     2.937592
      2.929949     2.922306     2.914662     2.907019     2.899376     2.891733     2.884089     2.876446     2.868803     2.861160
      2.853517     2.845873     2.838230     2.830587     2.822944     2.815300     2.807657     2.800014     2.792371     2.784728
      2.777084     2.769441     2.761798     2.754155     2.746511     2.738868     2.731225     2.723582     2.715939     2.708295
      2.700652     2.693009     2.685366     2.677722     2.670079     2.662436     2.654793     2.647150     2.639506     2.631863
      2.624220     2.616577     2.608933     2.601290     2.593647     2.586004     2.578361     2.570717     2.563074     2.555431
      2.547788     2.540144     2.532501     2.524858     2.517215     2.509572     2.501928     2.494285     2.486642     2.478999
      2.471355     2.463712     2.456069     2.448426     2.440783     2.433139     2.425496     2.417853     2.410210     2.402566
      2.394923     2.387280     2.379637     2.371994     2.364350     2.356707     2.349064     2.341421     2.333777     2.326134
      2.318491     2.310848     2.303205     2.295561     2.287918     2.280275     2.272632     2.264988     2.257345     2.249702
      2.242059     2.234416     2.226772     2.219129     2.211486     2.203843     2.196199     2.188556     2.180913     2.173270
      2.165627     2.157983     2.150340     2.142697     2.135054     2.127410     2.119767     2.112124     2.104481     2.096838
      2.089194     2.081551     2.073908     2.066265     2.058621     2.050978     2.043335     2.035692     2.028049     2.020405
      2.012762     2.005119     1.997476     1.989833     1.982190     1.974546     1.966903     1.959260     1.951617     1.943974
      1.936331     1.928688     1.921045     1.913402     1.905759     1.898115     1.890472     1.882829     1.875186     1.867543
      1.859900     1.852257     1.844614     1.836971     1.829327     1.821684     1.814041     1.806398     1.798755     1.791112
      1.783469     1.775826     1.768183     1.760540     1.752896     1.745253     1.737610     1.729967     1.722324     1.714681
      1.707038     1.699395     1.691752     1.684108     1.676465     1.668822     1.661179     1.653536     1.645893     1.638250
      1.630607     1.622964     1.615321     1.607677     1.600034     1.592391     1.584748     1.577105     1.569462     1.561819
      1.554176     1.546533     1.538890     1.531246     1.523603     1.515960     1.508317     1.500674     1.493031     1.485388
      1.477745     1.470102     1.462458     1.454815     1.447172     1.439529     1.431886     1.424243     1.416600     1.408957
      1.401314     1.393671     1.386027     1.378384     1.370741     1.363098     1.355455     1.347812     1.340169     1.332526
      1.324883     1.317240     1.309596     1.301953     1.294310     1.286667     1.279024     1.271381     1.263738     1.256095
      1.248452     1.240808     1.233165     1.225522     1.217879     1.210236     1.202593     1.194950     1.187307     1.179664
      1.172021     1.164377     1.156734     1.149091     1.141448     1.133805     1.126162     1.118519     1.110876     1.103233
      1.095590     1.087946     1.080303     1.072660     1.065017     1.057374     1.049731     1.042088     1.034445     1.026802
      1.019158     1.011515     1.003872     0.996229     0.988586     0.980943     0.973300     0.965657     0.958014     0.950371
      0.942727     0.935084     0.927441     0.919798     0.912155     0.904512     0.896869     0.889226     0.881583     0.873940
      0.866296     0.858653     0.851010     0.843367     0.835724     0.828081     0.820438     0.812795     0.805152     0.797508
      0.789865     0.782222     0.774579     0.766936     0.759293     0.751650     0.744007     0.736364     0.728721     0.721077
      0.713434     0.705791     0.698148     0.690505     0.682862     0.675219     0.667576     0.659933     0.652290     0.644646
      0.637003     0.629360     0.621717     0.614074     0.606431     0.598788     0.591145     0.583502     0.575858     0.568215
      0.560572     0.552929     0.545286     0.537643     0.530000     0.522357     0.514714     0.507071     0.499427     0.491784
      0.484141     0.476498     0.468855     0.461212     0.453569     0.445925     0.438282     0.430639     0.422996     0.415353
      0.407710     0.400067     0.392424     0.384780     0.377137     0.369494     0.361851     0.354208     0.346565     0.338922
      0.331278     0.323635     0.315992     0.308349     0.300706     0.293063     0.285420     0.277777     0.270133     0.262490
      0.254847     0.247204     0.239561     0.231918     0.224275     0.216631     0.208988     0.201345
 NY phased data points follow
   1.57536E+01  1.91036E+01  1.48267E+01  1.65036E+01  1.77382E+01  1.97407E+01  2.40511E+01  2.41895E+01  2.53963E+01  3.10297E+01
   3.28162E+01  2.96664E+01  2.96986E+01  2.73039E+01  2.33601E+01  2.25362E+01  1.53711E+01  1.75015E+01  1.73307E+01  1.69423E+01
   1.68515E+01  1.68661E+01  1.86564E+01  1.47604E+01  1.69204E+01  1.62778E+01  1.65770E+01  1.61330E+01  1.33513E+01  1.80377E+01
   1.95670E+01  1.91907E+01  1.99539E+01  1.99351E+01  1.47497E+01  1.50518E+01  1.57528E+01  1.54006E+01  1.51167E+01  2.26506E+01
   1.58622E+01  2.06396E+01  1.96737E+01  2.03645E+01  2.10631E+01  2.16531E+01  2.83410E+01  2.80454E+01  2.45157E+01  2.40303E+01
   2.04598E+01  1.68328E+01  2.18548E+01  1.84736E+01  1.73589E+01  1.89313E+01  2.03095E+01  1.78061E+01  1.08804E+01  1.37916E+01
   6.64481E+00  7.27139E+00  1.33229E+01  7.89795E+00  9.22384E+00  1.14929E+01  6.05498E+00  7.43448E+00  2.46819E+00  9.31381E+00
   8.36569E+00  9.93568E+00  7.80049E+00  1.13863E+01  9.03926E+00  8.83309E+00  1.00920E+01  9.14724E+00  7.37347E+00  6.15004E+00
   7.18136E+00  9.66993E+00  8.71516E+00  9.41947E+00  8.28898E+00  5.52549E+00  1.04833E+01  1.01583E+01  1.05974E+01  1.11376E+01
   1.31430E+01  1.39961E+01  1.03211E+01  1.53825E+01  1.59195E+01  1.84076E+01  2.07800E+01  2.14377E+01  2.59942E+01  2.93868E+01
   4.34903E+01  5.51909E+01  6.53043E+01  6.78626E+01  6.26725E+01  5.35719E+01  4.18661E+01  2.76763E+01  1.97017E+01  1.69771E+01
   1.48113E+01  1.52628E+01  1.67997E+01  1.22489E+01  1.58899E+01  1.53589E+01  1.19832E+01  1.30770E+01  1.38824E+01  1.18791E+01
   1.99030E+01  1.88186E+01  2.41012E+01  3.06813E+01  4.36674E+01  6.01910E+01  6.74626E+01  7.37239E+01  6.86313E+01  6.06721E+01
   4.90251E+01  3.68190E+01  2.69816E+01  2.33818E+01  2.07751E+01  1.24666E+01  1.34313E+01  1.01001E+01  1.25872E+01  1.47491E+01
   1.36582E+01  1.40636E+01  1.44565E+01  7.86962E+00  1.22357E+01  1.30529E+01  8.34854E+00  1.03997E+01  9.36674E+00  8.82342E+00
   6.46056E+00  6.17009E+00  9.32340E+00  5.48195E+00  5.31399E+00  1.04158E+01  6.45686E+00  6.78395E+00  1.13968E+01  7.35882E+00
   5.21473E+00  7.36922E+00  2.40501E+00  5.22344E+00  3.42980E+00  6.43847E+00 -3.13076E-02 -6.36800E-01 -6.71289E+00 -7.89492E+00
  -6.91894E+00 -1.27779E+01 -1.32966E+01 -1.47937E+01 -1.80418E+01 -2.00217E+01 -1.52766E+01 -1.42503E+01 -1.29732E+01 -7.32491E+00
  -7.31675E+00 -5.74866E+00 -9.11824E+00 -9.34316E+00 -1.05940E+01 -6.88218E+00 -1.15351E+01 -7.76260E+00 -7.76623E+00  5.08054E-01
   1.13799E+00  3.93614E+00  2.54968E+00  4.08387E+00  3.32722E+00  1.47233E+00 -2.81813E+00 -4.62657E+00 -5.70278E+00 -8.72858E+00
  -1.52241E+00 -2.92678E+00  5.39015E+00  4.54185E+00  3.14290E+00  6.79324E+00  4.97030E+00  1.55015E+00  2.06158E+00  5.49236E-01
   5.88272E+00  9.49885E+00  1.31059E+01  1.52283E+01  1.73530E+01  2.07083E+01  2.69152E+01  2.30167E+01  1.50916E+01  8.18537E+00
   3.85636E+00 -3.58346E-01  3.33730E+00  1.96422E+00  8.14005E+00  1.54322E+01  9.88676E+00  1.82376E+01  1.24534E+01  1.75468E+01
   1.96430E+01  1.67352E+01  1.80027E+01  1.99921E+01  1.37900E+01  1.39975E+01  1.15063E+01  1.86738E+01  1.27726E+01  1.86510E+01
   1.02724E+01  7.10393E+00  9.62015E+00  1.15017E+01  1.33504E+01  1.75026E+01  1.95749E+01  2.26382E+01  2.43348E+01  3.08271E+01
   2.81338E+01  3.32925E+01  3.76263E+01  3.79259E+01  4.50601E+01  5.97509E+01  7.04105E+01  8.83516E+01  1.14065E+02  1.31483E+02
   1.39894E+02  1.36467E+02  1.18595E+02  9.43766E+01  6.74938E+01  4.78818E+01  3.48923E+01  2.73585E+01  1.97249E+01  2.33505E+01
   1.74065E+01  1.26723E+01  1.31578E+01  1.25137E+01  1.25305E+01  7.60345E+00  1.46289E+01  1.18151E+01  8.42900E+00  1.23192E+01
   9.81448E+00  1.04290E+01  1.08832E+01  8.87023E+00  9.63982E+00  8.19314E+00  7.63059E+00  5.17511E+00  1.25809E+01  1.20323E+01
   1.00720E+01  1.41499E+01  1.03197E+01  1.22351E+01  1.17148E+01  1.53310E+01  1.81605E+01  1.05823E+01  1.05812E+01  1.18421E+01
   8.46957E+00  1.51948E+01  1.42269E+01  1.60556E+01  2.11914E+01  2.16960E+01  2.34358E+01  2.00501E+01  2.23853E+01  1.95655E+01
   1.90629E+01  2.27056E+01  2.29156E+01  2.60962E+01  2.50931E+01  2.37844E+01  2.46861E+01  2.57179E+01  2.98133E+01  2.71439E+01
   2.52244E+01  2.35580E+01  2.55815E+01  2.54774E+01  2.50539E+01  2.41625E+01  2.42534E+01  2.78846E+01  2.49260E+01  2.50655E+01
   2.28354E+01  2.66636E+01  2.57966E+01  2.95017E+01  2.69503E+01  2.95305E+01  2.80407E+01  2.63291E+01  2.88499E+01  2.62745E+01
   2.88086E+01  3.04844E+01  2.56394E+01  2.94456E+01  2.97234E+01  2.84164E+01  2.86204E+01  2.74864E+01  2.47544E+01  2.61279E+01
   2.42285E+01  2.73117E+01  2.14361E+01  2.43906E+01  2.37302E+01  2.38343E+01  1.97307E+01  2.03077E+01  1.63793E+01  1.87130E+01
   1.73659E+01  1.61178E+01  1.61732E+01  1.01886E+01  1.35331E+01  1.67859E+01  1.54342E+01  1.67395E+01  1.18921E+01  1.11709E+01
   1.12987E+01  1.16570E+01  1.31295E+01  1.37204E+01  9.17707E+00  1.20191E+01  8.82109E+00  1.30523E+01  1.25955E+01  8.96185E+00
   1.05833E+01  8.86602E+00  1.13028E+01  9.22836E+00  1.48823E+01  1.19320E+01  1.02345E+01  1.56593E+01  1.07016E+01  1.06586E+01
   1.50437E+01  1.30403E+01  1.62848E+01  1.46886E+01  1.30488E+01  1.64200E+01  1.96985E+01  1.84410E+01  2.02426E+01  1.83403E+01
   1.89778E+01  2.08831E+01  1.70008E+01  1.83262E+01  1.74230E+01  1.72305E+01  1.73294E+01  2.17076E+01  2.06349E+01  2.33634E+01
   2.08256E+01  2.18270E+01  2.21527E+01  1.52390E+01  1.48167E+01  1.45574E+01  1.31450E+01  1.42123E+01  1.29842E+01  1.03193E+01
   9.63248E+00  1.22737E+01  9.07045E+00  9.19166E+00  1.12344E+01  7.70894E+00  8.04067E+00  5.23496E+00  2.60883E+00  3.11404E+00
   7.35103E+00  1.17107E+01  9.13203E+00  4.62993E+00  4.15011E+00  5.95798E+00  8.21078E+00  7.50942E+00  3.62443E+00  5.90071E+00
   6.49836E+00  5.48759E+00  7.27283E+00  6.48511E+00  4.26282E+00  6.64467E+00  7.83345E+00  1.95872E+00  4.03477E+00  4.03637E+00
   4.34220E-01  3.81108E+00  5.93939E+00  5.68340E+00  7.48183E+00  5.59827E+00  7.23301E+00  4.03401E+00  7.46700E+00  5.43316E+00
   4.97604E+00  4.51775E+00  6.35956E+00  6.53674E+00  2.58719E+00  8.47899E+00  4.85185E+00  4.03415E+00  3.11681E+00  3.17195E+00
   3.74908E+00  4.16309E+00  2.49330E+00  5.28558E+00  4.79645E+00  4.61819E+00  2.35132E+00  3.41283E+00  6.09795E+00  8.62802E-01
   5.49632E+00  5.44475E+00  1.58662E+00  3.34214E+00  2.94856E+00  4.65706E+00  5.40367E+00  4.83561E+00  2.48256E+00  2.29713E+00
   3.31916E+00  5.93283E+00  5.08562E+00  1.93783E+00  1.31676E-01  3.65574E+00  5.68376E+00 -1.57039E+00
 NY points of the fit to the data follow
   1.52202E+01  1.49970E+01  1.53151E+01  1.64121E+01  1.79352E+01  1.98876E+01  2.23853E+01  2.53743E+01  2.83898E+01  3.06899E+01
   3.16291E+01  3.09467E+01  2.89457E+01  2.63082E+01  2.37763E+01  2.18120E+01  2.04255E+01  1.93461E+01  1.84628E+01  1.78779E+01
   1.74449E+01  1.69506E+01  1.63823E+01  1.59515E+01  1.56048E+01  1.52818E+01  1.53003E+01  1.61046E+01  1.78121E+01  2.00571E+01
   2.23149E+01  2.40050E+01  2.45529E+01  2.37634E+01  2.18635E+01  1.94921E+01  1.73115E+01  1.55635E+01  1.44557E+01  1.42683E+01
   1.49205E+01  1.59996E+01  1.71805E+01  1.84542E+01  1.98562E+01  2.12358E+01  2.22904E+01  2.26741E+01  2.21388E+01  2.07243E+01
   1.87147E+01  1.66097E+01  1.49286E+01  1.38321E+01  1.32207E+01  1.29916E+01  1.30781E+01  1.33915E+01  1.37614E+01  1.40013E+01
   1.39586E+01  1.35507E+01  1.28215E+01  1.19318E+01  1.11402E+01  1.06632E+01  1.05205E+01  1.06267E+01  1.08955E+01  1.12285E+01
   1.15192E+01  1.16796E+01  1.16575E+01  1.14587E+01  1.11314E+01  1.07458E+01  1.03818E+01  1.00872E+01  9.87495E+00  9.75569E+00
   9.82179E+00  9.97391E+00  1.01542E+01  1.04506E+01  1.08793E+01  1.12812E+01  1.14262E+01  1.11764E+01  1.05523E+01  9.75336E+00
   9.01617E+00  8.52359E+00  8.34711E+00  8.41782E+00  8.71836E+00  1.00757E+01  1.37687E+01  1.87474E+01  2.50217E+01  3.37786E+01
   4.50966E+01  5.67205E+01  6.51143E+01  6.74476E+01  6.29482E+01  5.32025E+01  4.12870E+01  3.03978E+01  2.23983E+01  1.71407E+01
   1.34589E+01  1.09123E+01  9.79477E+00  9.37137E+00  9.16280E+00  9.06068E+00  9.03485E+00  9.09995E+00  9.36224E+00  1.04080E+01
   1.38237E+01  1.90842E+01  2.54816E+01  3.39824E+01  4.51700E+01  5.74492E+01  6.74503E+01  7.19334E+01  6.93893E+01  6.07729E+01
   4.89294E+01  3.72073E+01  2.79657E+01  2.15476E+01  1.68429E+01  1.31128E+01  1.08535E+01  9.82147E+00  9.42912E+00  9.44893E+00
   9.63976E+00  9.77042E+00  9.72077E+00  9.46734E+00  9.04129E+00  8.53042E+00  8.02145E+00  7.54539E+00  7.10616E+00  6.70360E+00
   6.33267E+00  6.00053E+00  5.70968E+00  5.44193E+00  5.10336E+00  4.73895E+00  4.38148E+00  3.96565E+00  3.46035E+00  2.80242E+00
   2.14745E+00  1.79557E+00  1.87626E+00  2.21424E+00  2.46767E+00  2.33846E+00  1.71556E+00  7.39149E-01 -3.15450E-01 -1.27907E+00
  -2.08805E+00 -2.68719E+00 -3.25185E+00 -3.88852E+00 -4.51129E+00 -4.88040E+00 -4.81985E+00 -4.42520E+00 -3.98474E+00 -3.74233E+00
  -3.79388E+00 -3.92840E+00 -3.90718E+00 -3.67880E+00 -3.26116E+00 -2.65830E+00 -1.77902E+00 -4.67511E-01  1.20826E+00  2.96824E+00
   4.39960E+00  5.10492E+00  5.11015E+00  4.73589E+00  4.30234E+00  3.95450E+00  3.79059E+00  4.06833E+00  4.78111E+00  5.82327E+00
   7.06618E+00  8.29862E+00  9.14048E+00  9.23063E+00  8.40094E+00  6.54259E+00  3.80451E+00  8.41800E-01 -1.46237E+00 -2.31079E+00
  -1.65706E+00  2.17946E-01  3.16530E+00  6.85808E+00  1.04333E+01  1.27759E+01  1.31498E+01  1.15169E+01  8.25332E+00  4.03868E+00
   8.16496E-02 -2.44677E+00 -2.91145E+00 -1.28003E+00  1.88935E+00  5.82790E+00  9.58478E+00  1.23144E+01  1.36942E+01  1.40647E+01
   1.39856E+01  1.37581E+01  1.35970E+01  1.38382E+01  1.46431E+01  1.58415E+01  1.71254E+01  1.81879E+01  1.87464E+01  1.86487E+01
   1.79541E+01  1.71268E+01  1.67779E+01  1.72213E+01  1.83787E+01  2.00088E+01  2.18077E+01  2.34175E+01  2.46908E+01  2.58358E+01
   2.70120E+01  2.83953E+01  3.08341E+01  3.72908E+01  4.78431E+01  5.96097E+01  7.36850E+01  9.19895E+01  1.12938E+02  1.30853E+02
   1.39432E+02  1.35116E+02  1.18734E+02  9.50106E+01  7.04760E+01  5.06116E+01  3.71317E+01  2.81160E+01  2.13372E+01  1.71061E+01
   1.53170E+01  1.43087E+01  1.36315E+01  1.31624E+01  1.27707E+01  1.23493E+01  1.18715E+01  1.13322E+01  1.07633E+01  1.02215E+01
   9.75099E+00  9.36164E+00  9.05672E+00  8.83634E+00  8.68645E+00  8.58779E+00  8.52926E+00  8.51600E+00  8.56306E+00  8.68084E+00
   8.87367E+00  9.14645E+00  9.49937E+00  9.92926E+00  1.04310E+01  1.10001E+01  1.16352E+01  1.23353E+01  1.30992E+01  1.39222E+01
   1.47960E+01  1.57083E+01  1.66429E+01  1.75800E+01  1.84998E+01  1.93834E+01  2.02141E+01  2.09769E+01  2.16595E+01  2.22530E+01
   2.27523E+01  2.31552E+01  2.34644E+01  2.36869E+01  2.38346E+01  2.39230E+01  2.39712E+01  2.40010E+01  2.40385E+01  2.41176E+01
   2.42814E+01  2.44962E+01  2.47308E+01  2.50150E+01  2.53310E+01  2.55857E+01  2.56730E+01  2.55539E+01  2.53350E+01  2.51801E+01
   2.51771E+01  2.54103E+01  2.59390E+01  2.67304E+01  2.76506E+01  2.85342E+01  2.92425E+01  2.96481E+01  2.97003E+01  2.94621E+01
   2.90487E+01  2.85613E+01  2.80409E+01  2.74847E+01  2.69196E+01  2.63835E+01  2.58760E+01  2.53991E+01  2.49557E+01  2.45432E+01
   2.41525E+01  2.37676E+01  2.33680E+01  2.29316E+01  2.24387E+01  2.18750E+01  2.12353E+01  2.05235E+01  1.97533E+01  1.89449E+01
   1.81226E+01  1.73099E+01  1.65273E+01  1.57899E+01  1.51075E+01  1.44835E+01  1.39176E+01  1.34057E+01  1.29433E+01  1.25249E+01
   1.21467E+01  1.18057E+01  1.15006E+01  1.12306E+01  1.09968E+01  1.08004E+01  1.06439E+01  1.05294E+01  1.04596E+01  1.04366E+01
   1.04633E+01  1.05416E+01  1.06740E+01  1.08621E+01  1.11073E+01  1.14102E+01  1.17711E+01  1.21892E+01  1.26632E+01  1.31899E+01
   1.37652E+01  1.43832E+01  1.50367E+01  1.57167E+01  1.64126E+01  1.71121E+01  1.78017E+01  1.84665E+01  1.90919E+01  1.96624E+01
   2.01633E+01  2.05804E+01  2.09018E+01  2.11172E+01  2.12195E+01  2.12040E+01  2.10696E+01  2.08179E+01  2.04542E+01  1.99866E+01
   1.94258E+01  1.87842E+01  1.80761E+01  1.73161E+01  1.65197E+01  1.57016E+01  1.48761E+01  1.40559E+01  1.32523E+01  1.24746E+01
   1.17309E+01  1.10268E+01  1.03667E+01  9.75264E+00  9.18597E+00  8.66626E+00  8.19270E+00  7.76320E+00  7.37552E+00  7.02654E+00
   6.71345E+00  6.43301E+00  6.18249E+00  5.95873E+00  5.75914E+00  5.58083E+00  5.42170E+00  5.27944E+00  5.15244E+00  5.03873E+00
   4.93694E+00  4.84546E+00  4.76340E+00  4.68954E+00  4.62324E+00  4.56340E+00  4.50948E+00  4.46062E+00  4.41657E+00  4.37669E+00
   4.34078E+00  4.30814E+00  4.27863E+00  4.25176E+00  4.22759E+00  4.20567E+00  4.18600E+00  4.16809E+00  4.15199E+00  4.13737E+00
   4.12441E+00  4.11276E+00  4.10247E+00  4.09317E+00  4.08501E+00  4.07776E+00  4.07162E+00  4.06624E+00  4.06175E+00  4.05782E+00
   4.05469E+00  4.05215E+00  4.05042E+00  4.04915E+00  4.04850E+00  4.04819E+00  4.04853E+00  4.04927E+00  4.05063E+00  4.05226E+00
   4.05436E+00  4.05671E+00  4.05961E+00  4.06284E+00  4.06656E+00  4.07048E+00  4.07482E+00  4.07940E+00  4.08452E+00  4.08992E+00
   4.09578E+00  4.10183E+00  4.10834E+00  4.11516E+00  4.12258E+00  4.13033E+00  4.13861E+00  4.14719E+00
 NY background values follow
     1.344E+01    1.338E+01    1.332E+01    1.325E+01    1.319E+01    1.313E+01    1.306E+01    1.300E+01    1.294E+01    1.288E+01
     1.281E+01    1.275E+01    1.269E+01    1.263E+01    1.256E+01    1.250E+01    1.244E+01    1.237E+01    1.231E+01    1.225E+01
     1.219E+01    1.212E+01    1.206E+01    1.200E+01    1.193E+01    1.187E+01    1.181E+01    1.175E+01    1.168E+01    1.162E+01
     1.156E+01    1.149E+01    1.143E+01    1.137E+01    1.130E+01    1.124E+01    1.118E+01    1.111E+01    1.105E+01    1.099E+01
     1.092E+01    1.086E+01    1.080E+01    1.073E+01    1.067E+01    1.060E+01    1.054E+01    1.048E+01    1.041E+01    1.035E+01
     1.028E+01    1.022E+01    1.015E+01    1.009E+01    1.003E+01    9.961E+00    9.896E+00    9.830E+00    9.765E+00    9.700E+00
     9.634E+00    9.569E+00    9.503E+00    9.437E+00    9.371E+00    9.305E+00    9.239E+00    9.172E+00    9.106E+00    9.039E+00
     8.972E+00    8.905E+00    8.838E+00    8.770E+00    8.703E+00    8.635E+00    8.567E+00    8.499E+00    8.431E+00    8.362E+00
     8.293E+00    8.224E+00    8.155E+00    8.086E+00    8.016E+00    7.947E+00    7.877E+00    7.807E+00    7.736E+00    7.666E+00
     7.595E+00    7.524E+00    7.452E+00    7.381E+00    7.309E+00    7.237E+00    7.165E+00    7.092E+00    7.019E+00    6.947E+00
     6.873E+00    6.800E+00    6.727E+00    6.653E+00    6.579E+00    6.505E+00    6.431E+00    6.356E+00    6.282E+00    6.207E+00
     6.132E+00    6.056E+00    5.981E+00    5.906E+00    5.830E+00    5.754E+00    5.678E+00    5.602E+00    5.525E+00    5.449E+00
     5.372E+00    5.296E+00    5.219E+00    5.142E+00    5.064E+00    4.987E+00    4.910E+00    4.832E+00    4.754E+00    4.677E+00
     4.599E+00    4.521E+00    4.442E+00    4.364E+00    4.286E+00    4.207E+00    4.129E+00    4.050E+00    3.971E+00    3.893E+00
     3.814E+00    3.736E+00    3.657E+00    3.579E+00    3.501E+00    3.423E+00    3.345E+00    3.268E+00    3.191E+00    3.114E+00
     3.038E+00    2.963E+00    2.887E+00    2.813E+00    2.739E+00    2.665E+00    2.593E+00    2.521E+00    2.449E+00    2.379E+00
     2.309E+00    2.240E+00    2.172E+00    2.105E+00    2.039E+00    1.974E+00    1.910E+00    1.847E+00    1.785E+00    1.725E+00
     1.665E+00    1.607E+00    1.550E+00    1.494E+00    1.440E+00    1.387E+00    1.336E+00    1.286E+00    1.238E+00    1.191E+00
     1.145E+00    1.102E+00    1.060E+00    1.019E+00    9.807E-01    9.435E-01    9.079E-01    8.737E-01    8.411E-01    8.099E-01
     7.801E-01    7.517E-01    7.247E-01    6.991E-01    6.747E-01    6.517E-01    6.299E-01    6.093E-01    5.899E-01    5.718E-01
     5.547E-01    5.388E-01    5.240E-01    5.102E-01    4.975E-01    4.858E-01    4.750E-01    4.652E-01    4.564E-01    4.484E-01
     4.413E-01    4.350E-01    4.296E-01    4.249E-01    4.210E-01    4.178E-01    4.153E-01    4.135E-01    4.123E-01    4.117E-01
     4.117E-01    4.123E-01    4.134E-01    4.150E-01    4.171E-01    4.196E-01    4.225E-01    4.258E-01    4.296E-01    4.337E-01
     4.381E-01    4.430E-01    4.482E-01    4.538E-01    4.598E-01    4.661E-01    4.728E-01    4.799E-01    4.873E-01    4.950E-01
     5.031E-01    5.115E-01    5.203E-01    5.294E-01    5.389E-01    5.486E-01    5.587E-01    5.691E-01    5.798E-01    5.909E-01
     6.022E-01    6.139E-01    6.258E-01    6.381E-01    6.507E-01    6.635E-01    6.766E-01    6.900E-01    7.037E-01    7.177E-01
     7.320E-01    7.465E-01    7.613E-01    7.764E-01    7.917E-01    8.072E-01    8.231E-01    8.391E-01    8.555E-01    8.720E-01
     8.888E-01    9.059E-01    9.232E-01    9.406E-01    9.584E-01    9.763E-01    9.944E-01    1.013E+00    1.031E+00    1.050E+00
     1.069E+00    1.088E+00    1.107E+00    1.126E+00    1.146E+00    1.165E+00    1.185E+00    1.205E+00    1.225E+00    1.245E+00
     1.265E+00    1.285E+00    1.306E+00    1.326E+00    1.347E+00    1.367E+00    1.388E+00    1.408E+00    1.429E+00    1.450E+00
     1.470E+00    1.491E+00    1.512E+00    1.532E+00    1.553E+00    1.574E+00    1.594E+00    1.615E+00    1.636E+00    1.656E+00
     1.677E+00    1.697E+00    1.717E+00    1.738E+00    1.758E+00    1.778E+00    1.798E+00    1.818E+00    1.837E+00    1.857E+00
     1.876E+00    1.896E+00    1.915E+00    1.934E+00    1.953E+00    1.972E+00    1.991E+00    2.010E+00    2.029E+00    2.048E+00
     2.066E+00    2.085E+00    2.103E+00    2.121E+00    2.139E+00    2.157E+00    2.175E+00    2.193E+00    2.211E+00    2.229E+00
     2.247E+00    2.264E+00    2.282E+00    2.300E+00    2.317E+00    2.334E+00    2.352E+00    2.369E+00    2.386E+00    2.403E+00
     2.420E+00    2.437E+00    2.454E+00    2.471E+00    2.488E+00    2.505E+00    2.521E+00    2.538E+00    2.555E+00    2.571E+00
     2.588E+00    2.605E+00    2.621E+00    2.638E+00    2.654E+00    2.670E+00    2.687E+00    2.703E+00    2.719E+00    2.736E+00
     2.752E+00    2.768E+00    2.784E+00    2.801E+00    2.817E+00    2.833E+00    2.849E+00    2.865E+00    2.882E+00    2.898E+00
     2.914E+00    2.930E+00    2.946E+00    2.963E+00    2.979E+00    2.995E+00    3.011E+00    3.027E+00    3.044E+00    3.060E+00
     3.076E+00    3.093E+00    3.109E+00    3.125E+00    3.142E+00    3.158E+00    3.175E+00    3.191E+00    3.208E+00    3.224E+00
     3.241E+00    3.258E+00    3.275E+00    3.291E+00    3.308E+00    3.325E+00    3.342E+00    3.359E+00    3.376E+00    3.393E+00
     3.410E+00    3.428E+00    3.445E+00    3.462E+00    3.479E+00    3.497E+00    3.514E+00    3.531E+00    3.549E+00    3.566E+00
     3.583E+00    3.601E+00    3.618E+00    3.635E+00    3.653E+00    3.670E+00    3.687E+00    3.704E+00    3.721E+00    3.738E+00
     3.755E+00    3.772E+00    3.789E+00    3.805E+00    3.822E+00    3.839E+00    3.855E+00    3.871E+00    3.888E+00    3.904E+00
     3.920E+00    3.936E+00    3.951E+00    3.967E+00    3.982E+00    3.998E+00    4.013E+00    4.028E+00    4.043E+00    4.057E+00
     4.072E+00    4.086E+00    4.100E+00    4.114E+00    4.128E+00    4.141E+00    4.155E+00    4.168E+00    4.181E+00    4.194E+00
     4.207E+00    4.219E+00    4.232E+00    4.244E+00    4.256E+00    4.268E+00    4.280E+00    4.292E+00    4.303E+00    4.315E+00
     4.326E+00    4.337E+00    4.349E+00    4.360E+00    4.370E+00    4.381E+00    4.392E+00    4.403E+00    4.413E+00    4.424E+00
     4.434E+00    4.445E+00    4.455E+00    4.465E+00    4.475E+00    4.485E+00    4.495E+00    4.505E+00    4.515E+00    4.525E+00
     4.535E+00    4.545E+00    4.555E+00    4.565E+00    4.574E+00    4.584E+00    4.594E+00    4.604E+00
 Ala      Conc. = 1.32E+02
