 LCModel (Version 6.3-1L) Copyright: S.W. Provencher.          Ref.: Magn. Reson. Med. 30:672-679 (1993).                
 Slice#2 Row#10 Col#7  K_02_press_1_raw_act
 36 lines in following concentration table = NCONC+1
    Conc.  %SD /Cr+PCr  Metabolite                                         
  115.150  99% 4.7E-02 Ala                                                 
    0.000 999%   0.000 Asp                                                 
 1.71E+03  11%   0.695 Cr                                                  
  752.367  25%   0.305 PCr                                                 
    0.000 999%   0.000 GABA                                                
    0.000 999%   0.000 Glc                                                 
  717.361  33%   0.291 Gln                                                 
 2.05E+03  13%   0.831 Glu                                                 
  565.366   5%   0.229 GPC                                                 
    0.000 999%   0.000 PCh                                                 
  582.884  14%   0.236 GSH                                                 
 1.13E+03  23%   0.458 Ins                                                 
   31.056 393% 1.3E-02 Lac                                                 
 3.00E+03   4%   1.217 NAA                                                 
  438.295  27%   0.178 NAAG                                                
    0.000 999%   0.000 Scyllo                                              
    0.000 999%   0.000 Tau                                                 
    0.000 999%   0.000 -CrCH2                                              
  565.366   5%   0.229 GPC+PCh                                             
 3.44E+03   3%   1.395 NAA+NAAG                                            
 2.47E+03   3%   1.000 Cr+PCr                                              
 2.77E+03  13%   1.121 Glu+Gln                                             
 2.44E+03  34%   0.989 Lip13a                                              
    0.000 999%   0.000 Lip13b                                              
   77.194 506% 3.1E-02 Lip09                                               
 2.28E+03  20%   0.926 MM09                                                
  542.920  50%   0.220 Lip20                                               
 4.98E+03  12%   2.018 MM20                                                
  803.553  34%   0.326 MM12                                                
 2.13E+03  27%   0.862 MM14                                                
 1.64E+03  24%   0.664 MM17                                                
 2.44E+03  34%   0.989 Lip13a+Lip13b                                       
 5.37E+03  13%   2.176 MM14+Lip13a+Lip13b+MM12                             
 2.36E+03  14%   0.957 MM09+Lip09                                          
 5.52E+03  11%   2.239 MM20+Lip20                                          
   6 lines in following misc. output table
  FWHM = 0.046 ppm    S/N =  15                                            
  Data shift = 0.023 ppm                                                   
  Ph:  18 deg       3.2 deg/ppm                                            
  alphaB,S = 1.4E+00,   2.6E+01                                            
   14 spline knots.   Ns = 6(1)                                            
  (11) 3 infls.   (13) 1 extrs.                                            
  498 points on ppm-axis = NY
      4.000000     3.992357     3.984714     3.977070     3.969427     3.961784     3.954141     3.946497     3.938854     3.931211
      3.923568     3.915925     3.908281     3.900638     3.892995     3.885352     3.877708     3.870065     3.862422     3.854779
      3.847136     3.839492     3.831849     3.824206     3.816563     3.808919     3.801276     3.793633     3.785990     3.778347
      3.770703     3.763060     3.755417     3.747774     3.740130     3.732487     3.724844     3.717201     3.709558     3.701914
      3.694271     3.686628     3.678985     3.671341     3.663698     3.656055     3.648412     3.640769     3.633125     3.625482
      3.617839     3.610196     3.602552     3.594909     3.587266     3.579623     3.571980     3.564336     3.556693     3.549050
      3.541407     3.533763     3.526120     3.518477     3.510834     3.503191     3.495547     3.487904     3.480261     3.472618
      3.464974     3.457331     3.449688     3.442045     3.434402     3.426758     3.419115     3.411472     3.403829     3.396185
      3.388542     3.380899     3.373256     3.365613     3.357969     3.350326     3.342683     3.335040     3.327396     3.319753
      3.312110     3.304467     3.296824     3.289180     3.281537     3.273894     3.266251     3.258607     3.250964     3.243321
      3.235678     3.228034     3.220391     3.212748     3.205105     3.197462     3.189818     3.182175     3.174532     3.166889
      3.159245     3.151602     3.143959     3.136316     3.128673     3.121029     3.113386     3.105743     3.098100     3.090456
      3.082813     3.075170     3.067527     3.059884     3.052240     3.044597     3.036954     3.029311     3.021667     3.014024
      3.006381     2.998738     2.991095     2.983451     2.975808     2.968165     2.960522     2.952878     2.945235     2.937592
      2.929949     2.922306     2.914662     2.907019     2.899376     2.891733     2.884089     2.876446     2.868803     2.861160
      2.853517     2.845873     2.838230     2.830587     2.822944     2.815300     2.807657     2.800014     2.792371     2.784728
      2.777084     2.769441     2.761798     2.754155     2.746511     2.738868     2.731225     2.723582     2.715939     2.708295
      2.700652     2.693009     2.685366     2.677722     2.670079     2.662436     2.654793     2.647150     2.639506     2.631863
      2.624220     2.616577     2.608933     2.601290     2.593647     2.586004     2.578361     2.570717     2.563074     2.555431
      2.547788     2.540144     2.532501     2.524858     2.517215     2.509572     2.501928     2.494285     2.486642     2.478999
      2.471355     2.463712     2.456069     2.448426     2.440783     2.433139     2.425496     2.417853     2.410210     2.402566
      2.394923     2.387280     2.379637     2.371994     2.364350     2.356707     2.349064     2.341421     2.333777     2.326134
      2.318491     2.310848     2.303205     2.295561     2.287918     2.280275     2.272632     2.264988     2.257345     2.249702
      2.242059     2.234416     2.226772     2.219129     2.211486     2.203843     2.196199     2.188556     2.180913     2.173270
      2.165627     2.157983     2.150340     2.142697     2.135054     2.127410     2.119767     2.112124     2.104481     2.096838
      2.089194     2.081551     2.073908     2.066265     2.058621     2.050978     2.043335     2.035692     2.028049     2.020405
      2.012762     2.005119     1.997476     1.989833     1.982190     1.974546     1.966903     1.959260     1.951617     1.943974
      1.936331     1.928688     1.921045     1.913402     1.905759     1.898115     1.890472     1.882829     1.875186     1.867543
      1.859900     1.852257     1.844614     1.836971     1.829327     1.821684     1.814041     1.806398     1.798755     1.791112
      1.783469     1.775826     1.768183     1.760540     1.752896     1.745253     1.737610     1.729967     1.722324     1.714681
      1.707038     1.699395     1.691752     1.684108     1.676465     1.668822     1.661179     1.653536     1.645893     1.638250
      1.630607     1.622964     1.615321     1.607677     1.600034     1.592391     1.584748     1.577105     1.569462     1.561819
      1.554176     1.546533     1.538890     1.531246     1.523603     1.515960     1.508317     1.500674     1.493031     1.485388
      1.477745     1.470102     1.462458     1.454815     1.447172     1.439529     1.431886     1.424243     1.416600     1.408957
      1.401314     1.393671     1.386027     1.378384     1.370741     1.363098     1.355455     1.347812     1.340169     1.332526
      1.324883     1.317240     1.309596     1.301953     1.294310     1.286667     1.279024     1.271381     1.263738     1.256095
      1.248452     1.240808     1.233165     1.225522     1.217879     1.210236     1.202593     1.194950     1.187307     1.179664
      1.172021     1.164377     1.156734     1.149091     1.141448     1.133805     1.126162     1.118519     1.110876     1.103233
      1.095590     1.087946     1.080303     1.072660     1.065017     1.057374     1.049731     1.042088     1.034445     1.026802
      1.019158     1.011515     1.003872     0.996229     0.988586     0.980943     0.973300     0.965657     0.958014     0.950371
      0.942727     0.935084     0.927441     0.919798     0.912155     0.904512     0.896869     0.889226     0.881583     0.873940
      0.866296     0.858653     0.851010     0.843367     0.835724     0.828081     0.820438     0.812795     0.805152     0.797508
      0.789865     0.782222     0.774579     0.766936     0.759293     0.751650     0.744007     0.736364     0.728721     0.721077
      0.713434     0.705791     0.698148     0.690505     0.682862     0.675219     0.667576     0.659933     0.652290     0.644646
      0.637003     0.629360     0.621717     0.614074     0.606431     0.598788     0.591145     0.583502     0.575858     0.568215
      0.560572     0.552929     0.545286     0.537643     0.530000     0.522357     0.514714     0.507071     0.499427     0.491784
      0.484141     0.476498     0.468855     0.461212     0.453569     0.445925     0.438282     0.430639     0.422996     0.415353
      0.407710     0.400067     0.392424     0.384780     0.377137     0.369494     0.361851     0.354208     0.346565     0.338922
      0.331278     0.323635     0.315992     0.308349     0.300706     0.293063     0.285420     0.277777     0.270133     0.262490
      0.254847     0.247204     0.239561     0.231918     0.224275     0.216631     0.208988     0.201345
 NY phased data points follow
   5.53499E+01  5.67725E+01  6.59572E+01  6.10065E+01  6.74622E+01  7.17973E+01  7.82487E+01  8.78432E+01  9.85863E+01  1.02656E+02
   1.16107E+02  1.18633E+02  1.09171E+02  9.85131E+01  9.37343E+01  8.04551E+01  7.51362E+01  6.51917E+01  6.73294E+01  5.47661E+01
   4.56347E+01  5.12683E+01  5.16090E+01  5.61190E+01  5.46048E+01  4.72367E+01  5.84641E+01  5.80688E+01  5.77336E+01  6.10661E+01
   6.27464E+01  6.25077E+01  6.60474E+01  6.22159E+01  5.94075E+01  5.85546E+01  4.54374E+01  5.14407E+01  4.62439E+01  4.98302E+01
   4.79035E+01  4.86723E+01  4.43710E+01  4.77760E+01  4.59421E+01  5.59206E+01  6.38338E+01  5.83738E+01  5.79305E+01  5.07476E+01
   5.04100E+01  4.33466E+01  4.22466E+01  4.08339E+01  4.20006E+01  4.05820E+01  4.02249E+01  4.19116E+01  4.66294E+01  4.20939E+01
   4.08677E+01  3.24886E+01  3.69409E+01  3.20976E+01  2.38860E+01  2.76021E+01  2.62226E+01  3.20226E+01  2.59577E+01  2.65696E+01
   2.20331E+01  2.58004E+01  3.01192E+01  2.65843E+01  2.84152E+01  2.45515E+01  2.27511E+01  2.43517E+01  2.58510E+01  2.67774E+01
   2.42603E+01  2.79623E+01  1.88600E+01  2.21229E+01  2.19529E+01  2.03050E+01  2.39283E+01  2.55638E+01  2.07225E+01  2.27296E+01
   2.76340E+01  1.91494E+01  2.76496E+01  3.06061E+01  2.83803E+01  2.45571E+01  2.73714E+01  2.98422E+01  2.80361E+01  3.88465E+01
   5.56113E+01  6.69748E+01  8.60277E+01  8.47334E+01  7.43832E+01  6.15584E+01  5.27701E+01  4.93890E+01  3.55738E+01  3.44923E+01
   2.43602E+01  3.12206E+01  2.57424E+01  2.68305E+01  2.02186E+01  2.27896E+01  2.57341E+01  2.50503E+01  2.53048E+01  2.82472E+01
   3.16355E+01  3.27960E+01  3.17546E+01  4.81305E+01  6.36126E+01  8.28703E+01  1.06349E+02  1.08980E+02  9.83394E+01  8.92537E+01
   7.40224E+01  5.27477E+01  4.27461E+01  3.43973E+01  3.58402E+01  2.33152E+01  2.33013E+01  1.94041E+01  1.96920E+01  2.20048E+01
   2.20757E+01  1.96120E+01  1.75379E+01  1.91825E+01  2.28938E+01  1.76268E+01  1.83013E+01  1.75546E+01  1.47202E+01  1.33705E+01
   1.23230E+01  1.25941E+01  1.65239E+01  1.17524E+01  1.19583E+01  1.62045E+01  1.26465E+01  1.09587E+01  1.40851E+01  1.01580E+01
   1.23191E+01  1.33348E+01  7.99643E+00  1.04175E+01  1.44547E+01  1.24933E+01  1.09534E+01  1.63839E+01  1.00827E+01 -3.43040E-01
   4.44173E+00  3.02942E+00 -2.53294E+00 -1.28401E+01 -5.65670E+00 -8.82935E+00 -1.10827E+01 -7.04207E+00 -3.67606E+00 -9.95395E+00
  -2.88715E+00 -8.49561E+00 -4.20558E+00 -6.40438E+00 -3.53180E+00  2.07624E-01 -4.49431E+00 -1.58978E+00  9.50230E+00  4.74898E+00
   6.41307E-01  1.66537E+01  1.52864E+01  1.15610E+01  5.10165E+00  1.04790E+01  2.55511E+00  1.42183E+00 -1.47906E+00  1.94083E+00
   6.54099E+00  6.86642E+00  1.55370E+01  1.59073E+01  9.22758E+00  6.10228E+00  4.15453E+00  4.91728E-01  8.24687E+00  5.29669E-01
  -6.19954E+00  1.28716E-02  7.69143E+00  1.08391E+01  2.61240E+01  1.95764E+01  2.27518E+01  2.19390E+01  9.43154E+00  3.23862E+00
  -3.77181E+00 -3.35478E+00  1.30149E+00  5.59391E+00  6.74402E+00  1.08739E+01  1.76399E+01  1.61903E+01  1.84919E+01  1.35118E+01
   1.83503E+01  1.53881E+01  1.61421E+01  8.19899E+00  1.58467E+01  1.31939E+01  1.26752E+01  1.24551E+01  6.17717E+00  9.74545E+00
   7.94690E+00  1.41725E+01  9.39644E+00  7.88028E+00  1.08151E+01  1.99842E+01  1.90869E+01  2.39990E+01  2.15678E+01  3.07467E+01
   3.08991E+01  3.46703E+01  4.55070E+01  4.31494E+01  4.54164E+01  4.36527E+01  5.36975E+01  9.36776E+01  1.22905E+02  1.42504E+02
   1.42757E+02  1.32480E+02  1.02827E+02  7.74911E+01  5.36956E+01  4.51451E+01  1.90626E+01  2.22492E+01  1.70374E+01  2.01139E+01
   1.21495E+01  1.15902E+01  1.28375E+01  9.42066E+00  1.08550E+01  7.25274E+00  1.52011E+01  8.95242E+00  6.40690E+00  4.41439E+00
   1.26817E+01  8.84840E+00  1.29448E+01  5.06960E+00  4.40238E+00  6.14069E+00  8.88984E+00  8.10344E+00  6.55267E+00  8.05282E+00
   3.45925E+00  3.30419E+00  1.71949E+00  5.12572E+00  3.50335E+00  6.55063E+00  4.65996E+00  1.17954E+01  3.92857E+00  9.09344E+00
   7.18603E+00  6.53215E+00  1.17028E+01  1.07169E+01  9.58735E+00  7.41755E+00  1.26346E+01  1.89225E+01  1.15752E+01  1.01882E+01
   1.63220E+01  1.28545E+01  1.51751E+01  8.18268E+00  1.12303E+01  7.08168E+00  1.17767E+01  8.91865E+00  9.12494E+00  9.94720E+00
   7.59041E+00  1.17972E+01  7.68970E+00  1.00850E+01  5.58598E+00  5.28866E+00  6.53874E+00  8.25647E+00  1.07292E+01  1.12878E+01
   6.72827E+00  4.63117E+00  1.26631E+01  8.57564E+00  1.68848E+01  1.47217E+01  1.69507E+01  1.67865E+01  1.59290E+01  1.91850E+01
   1.55019E+01  8.14807E+00  1.35063E+01  1.14073E+01  1.50095E+01  2.06984E+01  1.37993E+01  1.47202E+01  1.86961E+01  8.83677E+00
   1.58617E+01  9.23738E+00  1.74533E+01  2.08830E+01  1.41223E+01  1.32793E+01  1.27004E+01  1.47794E+01  1.29246E+01  1.20571E+01
   1.49414E+01  1.57328E+01  6.11924E+00  1.34641E+01  9.40763E+00  8.46596E+00  1.04313E+01  8.80398E+00  1.70892E+01  9.67904E+00
   1.35511E+01  8.61781E+00  1.56787E+01  1.72784E+01  7.47860E+00  3.95240E+00  3.58167E+00  1.12432E+01  8.95282E+00  5.20694E+00
   2.00591E+00  5.88439E+00  7.78084E+00  8.61006E-01  6.16066E+00 -1.15429E-01  2.13131E+00  1.11357E+01  1.69396E+00  3.42512E+00
   1.03004E+01  8.14655E+00  3.97519E+00  6.09789E+00  1.14658E+01  1.05773E+01  9.40143E+00  1.49103E+01  1.37785E+01  1.66343E+01
   1.79779E+01  9.38034E+00  4.11778E+00  1.65059E+01  1.78860E+01  1.77196E+01  1.49340E+01  1.67046E+01  1.07868E+01  1.18240E+01
   1.71811E+01  1.44901E+01  9.30892E+00  3.81714E+00  1.12179E+01  5.23037E+00  6.87427E+00  4.67209E+00  6.14569E+00  3.08901E+00
   6.61043E+00  4.50283E+00  5.22187E+00  8.40871E+00 -6.33330E-01  4.11931E-01  9.58845E-01 -7.35533E+00 -3.72374E+00 -6.26848E+00
  -4.06798E+00  1.97369E-01  3.46084E+00  1.68072E+00  5.19213E-01 -2.09999E+00 -2.13575E+00  1.38353E+00 -1.34583E+00  1.33590E+00
   1.90478E+00 -7.76311E+00 -6.01820E-01 -3.06187E+00  3.97613E+00 -2.89608E+00 -1.96446E+00 -3.17630E+00 -2.91697E+00 -1.65678E+00
   9.65450E-01  2.03141E+00 -1.76968E+00  4.19301E-01 -4.20169E+00 -7.50629E-01 -2.59720E+00 -2.45113E+00 -2.56360E+00 -3.55584E+00
   2.89968E-01 -3.71768E+00  1.76434E-01 -4.30067E+00 -2.99510E+00 -4.88124E+00 -4.44551E-02  4.26416E-01 -1.10183E+00 -3.93988E+00
   1.14230E-01 -1.42960E+00 -5.28781E+00  4.12668E+00  1.59274E+00 -3.61558E+00  3.16748E+00  1.47042E+00  8.34663E-01  3.92462E-01
  -5.79064E+00 -4.17201E+00 -2.86556E-01 -3.03881E+00  2.08664E+00  3.96545E+00 -1.87213E+00 -3.70706E+00 -7.90946E+00 -1.90744E+00
   1.48825E+00  2.02312E+00 -5.36323E+00 -3.86262E+00  9.48539E-01  3.39124E-01 -1.69643E+00 -1.51377E+00
 NY points of the fit to the data follow
   5.96987E+01  5.92693E+01  5.95094E+01  6.05603E+01  6.31395E+01  6.87957E+01  7.61581E+01  8.33473E+01  9.24150E+01  1.02689E+02
   1.09921E+02  1.11411E+02  1.06741E+02  9.79931E+01  8.79830E+01  7.87947E+01  7.10313E+01  6.52872E+01  6.16681E+01  5.88361E+01
   5.66879E+01  5.55893E+01  5.46935E+01  5.37666E+01  5.24504E+01  5.10413E+01  5.17974E+01  5.50180E+01  5.93487E+01  6.35546E+01
   6.62567E+01  6.69228E+01  6.50939E+01  6.13048E+01  5.65493E+01  5.17657E+01  4.83367E+01  4.61659E+01  4.52272E+01  4.53213E+01
   4.58512E+01  4.64552E+01  4.70096E+01  4.82959E+01  5.05054E+01  5.26951E+01  5.38244E+01  5.32461E+01  5.12420E+01  4.85387E+01
   4.57136E+01  4.31850E+01  4.13087E+01  4.01104E+01  3.92859E+01  3.88579E+01  3.90377E+01  3.95933E+01  4.01436E+01  4.02627E+01
   3.97166E+01  3.85818E+01  3.71061E+01  3.56770E+01  3.45845E+01  3.39777E+01  3.37714E+01  3.37420E+01  3.39652E+01  3.42370E+01
   3.43941E+01  3.42825E+01  3.38685E+01  3.32668E+01  3.25810E+01  3.19156E+01  3.13225E+01  3.07924E+01  3.03464E+01  2.98942E+01
   2.94566E+01  2.90018E+01  2.84689E+01  2.76494E+01  2.64966E+01  2.51301E+01  2.38760E+01  2.30293E+01  2.27149E+01  2.28740E+01
   2.34011E+01  2.40716E+01  2.47469E+01  2.52758E+01  2.55157E+01  2.54384E+01  2.54033E+01  2.64961E+01  2.96038E+01  3.83891E+01
   5.52729E+01  7.25753E+01  8.34758E+01  8.46463E+01  7.73733E+01  6.57654E+01  5.35710E+01  4.31049E+01  3.50962E+01  2.97226E+01
   2.62005E+01  2.32110E+01  2.21116E+01  2.17196E+01  2.15272E+01  2.14280E+01  2.13589E+01  2.13260E+01  2.14097E+01  2.17893E+01
   2.29837E+01  2.58395E+01  3.26683E+01  4.58989E+01  6.74489E+01  9.12636E+01  1.07655E+02  1.11638E+02  1.03839E+02  8.90249E+01
   7.26750E+01  5.77136E+01  4.53471E+01  3.53537E+01  2.77267E+01  2.17032E+01  1.81706E+01  1.71368E+01  1.74936E+01  1.84079E+01
   1.92396E+01  1.95493E+01  1.93576E+01  1.88002E+01  1.80161E+01  1.72161E+01  1.64976E+01  1.57887E+01  1.51503E+01  1.44735E+01
   1.37880E+01  1.31039E+01  1.25248E+01  1.21583E+01  1.20273E+01  1.20059E+01  1.19149E+01  1.12849E+01  1.00171E+01  8.68286E+00
   7.77644E+00  7.84091E+00  8.58124E+00  9.10018E+00  8.97350E+00  8.16153E+00  6.97162E+00  5.80452E+00  4.95779E+00  4.42956E+00
   3.93776E+00  3.31926E+00  2.31257E+00  8.99244E-01  1.59726E-02 -8.58649E-02  4.63784E-01  9.87049E-01  9.00853E-01  5.28501E-01
   3.30582E-01  3.42594E-01  4.53932E-01  2.46751E-01 -3.65374E-02  2.55189E-01  1.63177E+00  3.98772E+00  6.80169E+00  9.27378E+00
   1.06013E+01  1.06856E+01  9.79093E+00  8.46394E+00  6.84669E+00  5.35896E+00  4.36889E+00  4.25748E+00  5.09797E+00  6.63588E+00
   8.82349E+00  1.12417E+01  1.32127E+01  1.40718E+01  1.31710E+01  1.09720E+01  7.28737E+00  2.92868E+00 -4.96860E-01 -2.46780E+00
  -2.39106E+00 -2.18532E-01  4.53429E+00  1.06371E+01  1.56011E+01  1.79166E+01  1.69112E+01  1.34095E+01  8.02725E+00  1.51213E+00
  -3.81177E+00 -6.00757E+00 -4.72811E+00 -1.03352E+00  3.75963E+00  8.45945E+00  1.20679E+01  1.40983E+01  1.43991E+01  1.37238E+01
   1.29915E+01  1.27410E+01  1.28612E+01  1.36004E+01  1.49834E+01  1.65082E+01  1.75535E+01  1.76565E+01  1.70630E+01  1.56850E+01
   1.41168E+01  1.32463E+01  1.36711E+01  1.52356E+01  1.74070E+01  1.95187E+01  2.11331E+01  2.20227E+01  2.24540E+01  2.29898E+01
   2.44539E+01  2.76279E+01  3.31833E+01  3.91523E+01  4.49937E+01  5.08680E+01  6.29664E+01  9.15276E+01  1.22424E+02  1.42174E+02
   1.43621E+02  1.28674E+02  1.04941E+02  7.98282E+01  5.83001E+01  4.18924E+01  3.03392E+01  2.31378E+01  1.60589E+01  1.31011E+01
   1.18484E+01  1.11439E+01  1.06664E+01  1.02803E+01  9.77935E+00  9.18870E+00  8.53917E+00  7.85570E+00  7.18378E+00  6.62067E+00
   6.17995E+00  5.83378E+00  5.55476E+00  5.32913E+00  5.13417E+00  4.95879E+00  4.80602E+00  4.70527E+00  4.70203E+00  4.80231E+00
   4.99175E+00  5.25862E+00  5.57790E+00  5.93403E+00  6.31391E+00  6.70829E+00  7.12604E+00  7.57706E+00  8.05913E+00  8.56212E+00
   9.07359E+00  9.57176E+00  1.00348E+01  1.04437E+01  1.07841E+01  1.10474E+01  1.12323E+01  1.13330E+01  1.13528E+01  1.12957E+01
   1.11681E+01  1.09804E+01  1.07465E+01  1.04807E+01  1.01985E+01  9.91603E+00  9.65001E+00  9.41743E+00  9.23491E+00  9.11922E+00
   9.09247E+00  9.18330E+00  9.39563E+00  9.80132E+00  1.01912E+01  1.02837E+01  1.00527E+01  9.62620E+00  9.19835E+00  8.93291E+00
   8.84838E+00  9.09405E+00  9.83202E+00  1.09224E+01  1.20627E+01  1.30491E+01  1.37756E+01  1.42155E+01  1.44516E+01  1.45797E+01
   1.46560E+01  1.47470E+01  1.48486E+01  1.49545E+01  1.50815E+01  1.51265E+01  1.50626E+01  1.49156E+01  1.47392E+01  1.45841E+01
   1.44623E+01  1.44332E+01  1.45167E+01  1.46597E+01  1.47785E+01  1.48157E+01  1.47570E+01  1.45972E+01  1.43556E+01  1.40554E+01
   1.37062E+01  1.33265E+01  1.29071E+01  1.24533E+01  1.19782E+01  1.14805E+01  1.09630E+01  1.04311E+01  9.89118E+00  9.34968E+00
   8.81316E+00  8.28838E+00  7.78239E+00  7.30211E+00  6.85387E+00  6.44326E+00  6.07544E+00  5.75548E+00  5.48832E+00  5.27850E+00
   5.12983E+00  5.04555E+00  5.02869E+00  5.08219E+00  5.20870E+00  5.41001E+00  5.68681E+00  6.03868E+00  6.46423E+00  6.96082E+00
   7.52405E+00  8.14716E+00  8.82095E+00  9.53399E+00  1.02729E+01  1.10225E+01  1.17653E+01  1.24825E+01  1.31544E+01  1.37613E+01
   1.42847E+01  1.47079E+01  1.50162E+01  1.51978E+01  1.52448E+01  1.51536E+01  1.49252E+01  1.45648E+01  1.40811E+01  1.34864E+01
   1.27957E+01  1.20265E+01  1.11976E+01  1.03279E+01  9.43557E+00  8.53761E+00  7.64968E+00  6.78548E+00  5.95632E+00  5.17076E+00
   4.43480E+00  3.75231E+00  3.12543E+00  2.55464E+00  2.03884E+00  1.57555E+00  1.16147E+00  7.93018E-01  4.66556E-01  1.78330E-01
  -7.56019E-02 -2.99192E-01 -4.96065E-01 -6.69301E-01 -8.21541E-01 -9.55256E-01 -1.07287E+00 -1.17660E+00 -1.26820E+00 -1.34899E+00
  -1.42005E+00 -1.48253E+00 -1.53760E+00 -1.58627E+00 -1.62918E+00 -1.66674E+00 -1.69936E+00 -1.72765E+00 -1.75224E+00 -1.77356E+00
  -1.79177E+00 -1.80694E+00 -1.81930E+00 -1.82925E+00 -1.83718E+00 -1.84320E+00 -1.84729E+00 -1.84943E+00 -1.84986E+00 -1.84890E+00
  -1.84675E+00 -1.84337E+00 -1.83863E+00 -1.83258E+00 -1.82545E+00 -1.81749E+00 -1.80877E+00 -1.79916E+00 -1.78854E+00 -1.77703E+00
  -1.76487E+00 -1.75221E+00 -1.73900E+00 -1.72505E+00 -1.71034E+00 -1.69503E+00 -1.67937E+00 -1.66339E+00 -1.64695E+00 -1.62991E+00
  -1.61231E+00 -1.59437E+00 -1.57625E+00 -1.55788E+00 -1.53909E+00 -1.51980E+00 -1.50013E+00 -1.48030E+00 -1.46037E+00 -1.44020E+00
  -1.41963E+00 -1.39864E+00 -1.37743E+00 -1.35615E+00 -1.33477E+00 -1.31310E+00 -1.29100E+00 -1.26856E+00
 NY background values follow
     5.658E+01    5.619E+01    5.580E+01    5.541E+01    5.502E+01    5.463E+01    5.424E+01    5.384E+01    5.345E+01    5.306E+01
     5.267E+01    5.228E+01    5.189E+01    5.150E+01    5.111E+01    5.072E+01    5.033E+01    4.994E+01    4.955E+01    4.916E+01
     4.877E+01    4.838E+01    4.799E+01    4.760E+01    4.722E+01    4.683E+01    4.644E+01    4.606E+01    4.567E+01    4.529E+01
     4.491E+01    4.452E+01    4.414E+01    4.376E+01    4.338E+01    4.300E+01    4.262E+01    4.224E+01    4.187E+01    4.149E+01
     4.112E+01    4.074E+01    4.037E+01    4.000E+01    3.963E+01    3.926E+01    3.889E+01    3.853E+01    3.816E+01    3.780E+01
     3.744E+01    3.708E+01    3.672E+01    3.636E+01    3.600E+01    3.565E+01    3.530E+01    3.494E+01    3.459E+01    3.424E+01
     3.390E+01    3.355E+01    3.321E+01    3.287E+01    3.253E+01    3.219E+01    3.185E+01    3.151E+01    3.118E+01    3.085E+01
     3.052E+01    3.019E+01    2.987E+01    2.954E+01    2.922E+01    2.890E+01    2.858E+01    2.826E+01    2.795E+01    2.764E+01
     2.733E+01    2.702E+01    2.671E+01    2.641E+01    2.611E+01    2.581E+01    2.551E+01    2.521E+01    2.492E+01    2.463E+01
     2.434E+01    2.406E+01    2.377E+01    2.349E+01    2.321E+01    2.294E+01    2.266E+01    2.239E+01    2.212E+01    2.185E+01
     2.158E+01    2.132E+01    2.106E+01    2.080E+01    2.054E+01    2.028E+01    2.003E+01    1.978E+01    1.953E+01    1.928E+01
     1.903E+01    1.879E+01    1.855E+01    1.830E+01    1.806E+01    1.783E+01    1.759E+01    1.736E+01    1.712E+01    1.689E+01
     1.666E+01    1.643E+01    1.620E+01    1.598E+01    1.576E+01    1.553E+01    1.531E+01    1.509E+01    1.487E+01    1.465E+01
     1.444E+01    1.422E+01    1.401E+01    1.380E+01    1.359E+01    1.338E+01    1.317E+01    1.296E+01    1.275E+01    1.255E+01
     1.234E+01    1.214E+01    1.194E+01    1.173E+01    1.153E+01    1.134E+01    1.114E+01    1.094E+01    1.075E+01    1.056E+01
     1.036E+01    1.017E+01    9.985E+00    9.798E+00    9.612E+00    9.428E+00    9.245E+00    9.064E+00    8.885E+00    8.707E+00
     8.531E+00    8.357E+00    8.184E+00    8.013E+00    7.844E+00    7.677E+00    7.511E+00    7.347E+00    7.186E+00    7.026E+00
     6.868E+00    6.712E+00    6.558E+00    6.406E+00    6.255E+00    6.107E+00    5.962E+00    5.818E+00    5.676E+00    5.536E+00
     5.399E+00    5.264E+00    5.131E+00    5.000E+00    4.872E+00    4.745E+00    4.621E+00    4.498E+00    4.378E+00    4.260E+00
     4.143E+00    4.029E+00    3.917E+00    3.806E+00    3.697E+00    3.590E+00    3.485E+00    3.382E+00    3.281E+00    3.181E+00
     3.083E+00    2.986E+00    2.891E+00    2.798E+00    2.706E+00    2.616E+00    2.528E+00    2.441E+00    2.355E+00    2.271E+00
     2.188E+00    2.107E+00    2.027E+00    1.948E+00    1.870E+00    1.794E+00    1.719E+00    1.645E+00    1.573E+00    1.501E+00
     1.431E+00    1.362E+00    1.293E+00    1.226E+00    1.160E+00    1.095E+00    1.030E+00    9.670E-01    9.045E-01    8.429E-01
     7.822E-01    7.224E-01    6.634E-01    6.052E-01    5.479E-01    4.914E-01    4.357E-01    3.808E-01    3.266E-01    2.733E-01
     2.207E-01    1.688E-01    1.176E-01    6.721E-02    1.748E-02   -3.155E-02   -7.989E-02   -1.276E-01   -1.746E-01   -2.210E-01
    -2.667E-01   -3.119E-01   -3.564E-01   -4.003E-01   -4.436E-01   -4.864E-01   -5.286E-01   -5.703E-01   -6.114E-01   -6.520E-01
    -6.921E-01   -7.317E-01   -7.709E-01   -8.095E-01   -8.477E-01   -8.854E-01   -9.227E-01   -9.596E-01   -9.961E-01   -1.032E+00
    -1.068E+00   -1.103E+00   -1.138E+00   -1.173E+00   -1.207E+00   -1.241E+00   -1.274E+00   -1.307E+00   -1.340E+00   -1.373E+00
    -1.405E+00   -1.437E+00   -1.468E+00   -1.499E+00   -1.530E+00   -1.561E+00   -1.591E+00   -1.621E+00   -1.651E+00   -1.680E+00
    -1.709E+00   -1.738E+00   -1.766E+00   -1.794E+00   -1.822E+00   -1.850E+00   -1.877E+00   -1.904E+00   -1.931E+00   -1.957E+00
    -1.983E+00   -2.009E+00   -2.035E+00   -2.060E+00   -2.085E+00   -2.110E+00   -2.135E+00   -2.159E+00   -2.184E+00   -2.208E+00
    -2.231E+00   -2.255E+00   -2.278E+00   -2.301E+00   -2.324E+00   -2.347E+00   -2.369E+00   -2.391E+00   -2.413E+00   -2.435E+00
    -2.457E+00   -2.478E+00   -2.499E+00   -2.520E+00   -2.541E+00   -2.561E+00   -2.582E+00   -2.602E+00   -2.622E+00   -2.641E+00
    -2.661E+00   -2.680E+00   -2.699E+00   -2.718E+00   -2.736E+00   -2.755E+00   -2.773E+00   -2.791E+00   -2.808E+00   -2.826E+00
    -2.843E+00   -2.860E+00   -2.877E+00   -2.893E+00   -2.910E+00   -2.926E+00   -2.942E+00   -2.957E+00   -2.973E+00   -2.988E+00
    -3.003E+00   -3.018E+00   -3.032E+00   -3.046E+00   -3.060E+00   -3.074E+00   -3.088E+00   -3.101E+00   -3.114E+00   -3.127E+00
    -3.139E+00   -3.152E+00   -3.164E+00   -3.176E+00   -3.187E+00   -3.198E+00   -3.210E+00   -3.220E+00   -3.231E+00   -3.241E+00
    -3.251E+00   -3.261E+00   -3.270E+00   -3.279E+00   -3.287E+00   -3.296E+00   -3.304E+00   -3.311E+00   -3.319E+00   -3.326E+00
    -3.332E+00   -3.338E+00   -3.344E+00   -3.349E+00   -3.354E+00   -3.359E+00   -3.363E+00   -3.367E+00   -3.370E+00   -3.373E+00
    -3.375E+00   -3.377E+00   -3.379E+00   -3.380E+00   -3.381E+00   -3.381E+00   -3.380E+00   -3.380E+00   -3.378E+00   -3.376E+00
    -3.374E+00   -3.371E+00   -3.368E+00   -3.364E+00   -3.359E+00   -3.354E+00   -3.349E+00   -3.342E+00   -3.336E+00   -3.328E+00
    -3.320E+00   -3.312E+00   -3.303E+00   -3.294E+00   -3.284E+00   -3.273E+00   -3.262E+00   -3.251E+00   -3.239E+00   -3.226E+00
    -3.213E+00   -3.200E+00   -3.186E+00   -3.172E+00   -3.157E+00   -3.142E+00   -3.127E+00   -3.111E+00   -3.094E+00   -3.078E+00
    -3.061E+00   -3.043E+00   -3.025E+00   -3.007E+00   -2.989E+00   -2.970E+00   -2.950E+00   -2.931E+00   -2.911E+00   -2.891E+00
    -2.870E+00   -2.849E+00   -2.828E+00   -2.807E+00   -2.785E+00   -2.764E+00   -2.741E+00   -2.719E+00   -2.696E+00   -2.674E+00
    -2.651E+00   -2.627E+00   -2.604E+00   -2.580E+00   -2.556E+00   -2.532E+00   -2.508E+00   -2.484E+00   -2.459E+00   -2.435E+00
    -2.410E+00   -2.385E+00   -2.360E+00   -2.334E+00   -2.309E+00   -2.283E+00   -2.258E+00   -2.232E+00   -2.206E+00   -2.180E+00
    -2.154E+00   -2.128E+00   -2.102E+00   -2.076E+00   -2.049E+00   -2.023E+00   -1.996E+00   -1.970E+00   -1.943E+00   -1.917E+00
    -1.890E+00   -1.863E+00   -1.837E+00   -1.810E+00   -1.783E+00   -1.757E+00   -1.730E+00   -1.703E+00   -1.676E+00   -1.650E+00
    -1.623E+00   -1.596E+00   -1.570E+00   -1.543E+00   -1.517E+00   -1.490E+00   -1.464E+00   -1.438E+00
 Ala      Conc. = 1.15E+02
