 LCModel (Version 6.3-1L) Copyright: S.W. Provencher.          Ref.: Magn. Reson. Med. 30:672-679 (1993).                
 Slice#1 Row#2 Col#14  K_02_press_1_raw_act
 36 lines in following concentration table = NCONC+1
    Conc.  %SD /Cr+PCr  Metabolite                                         
 3.41E+03  48%   0.000 Ala                                                 
    0.000 999%   0.000 Asp                                                 
    0.000 999%   0.000 Cr                                                  
    0.000 999%   0.000 PCr                                                 
    0.000 999%   0.000 GABA                                                
    0.122 999%   0.000 Glc                                                 
    0.000 999%   0.000 Gln                                                 
    0.000 999%   0.000 Glu                                                 
    0.000 999%   0.000 GPC                                                 
    0.000 999%   0.000 PCh                                                 
   40.891 225%   0.000 GSH                                                 
    5.108 999%   0.000 Ins                                                 
 1.95E+04  25%   0.000 Lac                                                 
    0.000 999%   0.000 NAA                                                 
    0.000 999%   0.000 NAAG                                                
 8.43E-02 999%   0.000 Scyllo                                              
    0.351 999%   0.000 Tau                                                 
    4.681 664%   0.000 -CrCH2                                              
    0.000 999%   0.000 GPC+PCh                                             
    0.000 999%   0.000 NAA+NAAG                                            
    0.000 999%   0.000 Cr+PCr                                              
    0.000 999%   0.000 Glu+Gln                                             
 6.91E+03 148%   0.000 Lip13a                                              
 5.31E+04  24%   0.000 Lip13b                                              
    0.000 999%   0.000 Lip09                                               
 1.68E+03  19%   0.000 MM09                                                
    0.000 999%   0.000 Lip20                                               
    0.000 999%   0.000 MM20                                                
  827.878 116%   0.000 MM12                                                
 1.64E+04  22%   0.000 MM14                                                
 3.55E+03  30%   0.000 MM17                                                
 6.00E+04  10%   0.000 Lip13a+Lip13b                                       
 7.73E+04   5%   0.000 MM14+Lip13a+Lip13b+MM12                             
 1.68E+03  19%   0.000 MM09+Lip09                                          
    0.000 999%   0.000 MM20+Lip20                                          
   6 lines in following misc. output table
  FWHM = 0.122 ppm    S/N =  90                                            
  Data shift =-0.076 ppm                                                   
  Ph:-124 deg      75.2 deg/ppm                                            
  alphaB,S = 1.1E+01,   5.1E+01                                            
    9 spline knots.   Ns = 9(2)                                            
  ( 4) 2 infls.   ( 1) 1 extrs.                                            
  498 points on ppm-axis = NY
      4.000000     3.992357     3.984714     3.977070     3.969427     3.961784     3.954141     3.946497     3.938854     3.931211
      3.923568     3.915925     3.908281     3.900638     3.892995     3.885352     3.877708     3.870065     3.862422     3.854779
      3.847136     3.839492     3.831849     3.824206     3.816563     3.808919     3.801276     3.793633     3.785990     3.778347
      3.770703     3.763060     3.755417     3.747774     3.740130     3.732487     3.724844     3.717201     3.709558     3.701914
      3.694271     3.686628     3.678985     3.671341     3.663698     3.656055     3.648412     3.640769     3.633125     3.625482
      3.617839     3.610196     3.602552     3.594909     3.587266     3.579623     3.571980     3.564336     3.556693     3.549050
      3.541407     3.533763     3.526120     3.518477     3.510834     3.503191     3.495547     3.487904     3.480261     3.472618
      3.464974     3.457331     3.449688     3.442045     3.434402     3.426758     3.419115     3.411472     3.403829     3.396185
      3.388542     3.380899     3.373256     3.365613     3.357969     3.350326     3.342683     3.335040     3.327396     3.319753
      3.312110     3.304467     3.296824     3.289180     3.281537     3.273894     3.266251     3.258607     3.250964     3.243321
      3.235678     3.228034     3.220391     3.212748     3.205105     3.197462     3.189818     3.182175     3.174532     3.166889
      3.159245     3.151602     3.143959     3.136316     3.128673     3.121029     3.113386     3.105743     3.098100     3.090456
      3.082813     3.075170     3.067527     3.059884     3.052240     3.044597     3.036954     3.029311     3.021667     3.014024
      3.006381     2.998738     2.991095     2.983451     2.975808     2.968165     2.960522     2.952878     2.945235     2.937592
      2.929949     2.922306     2.914662     2.907019     2.899376     2.891733     2.884089     2.876446     2.868803     2.861160
      2.853517     2.845873     2.838230     2.830587     2.822944     2.815300     2.807657     2.800014     2.792371     2.784728
      2.777084     2.769441     2.761798     2.754155     2.746511     2.738868     2.731225     2.723582     2.715939     2.708295
      2.700652     2.693009     2.685366     2.677722     2.670079     2.662436     2.654793     2.647150     2.639506     2.631863
      2.624220     2.616577     2.608933     2.601290     2.593647     2.586004     2.578361     2.570717     2.563074     2.555431
      2.547788     2.540144     2.532501     2.524858     2.517215     2.509572     2.501928     2.494285     2.486642     2.478999
      2.471355     2.463712     2.456069     2.448426     2.440783     2.433139     2.425496     2.417853     2.410210     2.402566
      2.394923     2.387280     2.379637     2.371994     2.364350     2.356707     2.349064     2.341421     2.333777     2.326134
      2.318491     2.310848     2.303205     2.295561     2.287918     2.280275     2.272632     2.264988     2.257345     2.249702
      2.242059     2.234416     2.226772     2.219129     2.211486     2.203843     2.196199     2.188556     2.180913     2.173270
      2.165627     2.157983     2.150340     2.142697     2.135054     2.127410     2.119767     2.112124     2.104481     2.096838
      2.089194     2.081551     2.073908     2.066265     2.058621     2.050978     2.043335     2.035692     2.028049     2.020405
      2.012762     2.005119     1.997476     1.989833     1.982190     1.974546     1.966903     1.959260     1.951617     1.943974
      1.936331     1.928688     1.921045     1.913402     1.905759     1.898115     1.890472     1.882829     1.875186     1.867543
      1.859900     1.852257     1.844614     1.836971     1.829327     1.821684     1.814041     1.806398     1.798755     1.791112
      1.783469     1.775826     1.768183     1.760540     1.752896     1.745253     1.737610     1.729967     1.722324     1.714681
      1.707038     1.699395     1.691752     1.684108     1.676465     1.668822     1.661179     1.653536     1.645893     1.638250
      1.630607     1.622964     1.615321     1.607677     1.600034     1.592391     1.584748     1.577105     1.569462     1.561819
      1.554176     1.546533     1.538890     1.531246     1.523603     1.515960     1.508317     1.500674     1.493031     1.485388
      1.477745     1.470102     1.462458     1.454815     1.447172     1.439529     1.431886     1.424243     1.416600     1.408957
      1.401314     1.393671     1.386027     1.378384     1.370741     1.363098     1.355455     1.347812     1.340169     1.332526
      1.324883     1.317240     1.309596     1.301953     1.294310     1.286667     1.279024     1.271381     1.263738     1.256095
      1.248452     1.240808     1.233165     1.225522     1.217879     1.210236     1.202593     1.194950     1.187307     1.179664
      1.172021     1.164377     1.156734     1.149091     1.141448     1.133805     1.126162     1.118519     1.110876     1.103233
      1.095590     1.087946     1.080303     1.072660     1.065017     1.057374     1.049731     1.042088     1.034445     1.026802
      1.019158     1.011515     1.003872     0.996229     0.988586     0.980943     0.973300     0.965657     0.958014     0.950371
      0.942727     0.935084     0.927441     0.919798     0.912155     0.904512     0.896869     0.889226     0.881583     0.873940
      0.866296     0.858653     0.851010     0.843367     0.835724     0.828081     0.820438     0.812795     0.805152     0.797508
      0.789865     0.782222     0.774579     0.766936     0.759293     0.751650     0.744007     0.736364     0.728721     0.721077
      0.713434     0.705791     0.698148     0.690505     0.682862     0.675219     0.667576     0.659933     0.652290     0.644646
      0.637003     0.629360     0.621717     0.614074     0.606431     0.598788     0.591145     0.583502     0.575858     0.568215
      0.560572     0.552929     0.545286     0.537643     0.530000     0.522357     0.514714     0.507071     0.499427     0.491784
      0.484141     0.476498     0.468855     0.461212     0.453569     0.445925     0.438282     0.430639     0.422996     0.415353
      0.407710     0.400067     0.392424     0.384780     0.377137     0.369494     0.361851     0.354208     0.346565     0.338922
      0.331278     0.323635     0.315992     0.308349     0.300706     0.293063     0.285420     0.277777     0.270133     0.262490
      0.254847     0.247204     0.239561     0.231918     0.224275     0.216631     0.208988     0.201345
 NY phased data points follow
   4.49686E+00 -7.27912E-01  2.05522E+00  4.96487E+00  4.97487E+00  4.90347E+00  1.76511E+00  8.46689E-01  1.64875E+00  3.23705E+00
   5.88196E-01 -1.48163E+00  3.04859E+00  3.03897E+00  7.09583E-01  1.80231E+00 -1.41898E+00  1.35866E-01 -4.79814E-01 -1.08289E-01
   2.18085E+00 -1.23796E+00 -3.56289E+00 -2.06940E+00 -1.04571E+00 -5.06091E-01  4.47442E+00  2.62283E-01 -1.15143E+00 -2.96592E+00
  -8.55600E-01 -2.13296E+00 -2.33698E+00 -1.07032E-01 -1.65023E+00 -1.58361E+00 -4.23915E-01 -1.51130E+00 -3.37084E+00 -4.45271E+00
  -5.95764E+00 -5.03221E+00 -5.06021E+00 -5.27518E+00 -8.96174E+00 -5.05410E+00 -5.23279E+00 -5.89722E+00 -6.84612E+00 -4.44226E+00
  -4.42615E+00 -6.83184E+00 -2.93272E+00 -3.83341E+00 -5.74339E+00 -3.23236E+00 -6.45248E+00 -7.79716E+00 -1.04241E+01 -6.42619E+00
  -7.40392E+00 -8.02864E+00 -5.84426E+00 -6.82535E+00 -6.90420E+00 -6.44454E+00 -4.78723E+00 -7.01182E+00 -6.86674E+00 -1.14286E+01
  -7.20408E+00 -7.54758E+00 -8.85676E+00 -8.74426E+00 -5.82972E+00 -1.16256E+01 -6.81976E+00 -9.56271E+00 -7.17841E+00 -1.22104E+01
  -1.03852E+01 -1.46251E+01 -1.00733E+01 -1.07774E+01 -1.16509E+01 -1.15374E+01 -8.48725E+00 -1.00013E+01 -1.15841E+01 -1.07571E+01
  -1.23483E+01 -1.05674E+01 -1.27771E+01 -1.23388E+01 -1.22796E+01 -1.15001E+01 -1.53049E+01 -1.73263E+01 -1.70893E+01 -1.75283E+01
  -1.31803E+01 -1.37384E+01 -1.41023E+01 -1.71697E+01 -1.36445E+01 -1.32674E+01 -1.60350E+01 -1.64017E+01 -1.71194E+01 -1.40850E+01
  -1.46788E+01 -1.77844E+01 -1.87061E+01 -1.70295E+01 -1.45499E+01 -1.62738E+01 -1.96309E+01 -1.69525E+01 -1.82083E+01 -1.40626E+01
  -1.74160E+01 -1.73514E+01 -1.82062E+01 -2.13024E+01 -2.10051E+01 -1.71841E+01 -1.98506E+01 -1.70258E+01 -2.18404E+01 -1.92717E+01
  -2.31332E+01 -2.03958E+01 -2.13098E+01 -1.95948E+01 -1.81218E+01 -2.01723E+01 -2.08751E+01 -1.95375E+01 -2.21870E+01 -2.28638E+01
  -1.91308E+01 -2.15121E+01 -2.02379E+01 -2.08753E+01 -2.22762E+01 -2.42773E+01 -2.20901E+01 -2.05847E+01 -2.23922E+01 -2.60849E+01
  -2.43464E+01 -2.41026E+01 -2.35393E+01 -2.20538E+01 -2.61702E+01 -2.57117E+01 -2.59263E+01 -2.41434E+01 -2.37463E+01 -2.48313E+01
  -2.29658E+01 -2.51773E+01 -2.58660E+01 -2.59703E+01 -2.50760E+01 -2.30506E+01 -2.87601E+01 -2.45741E+01 -2.86630E+01 -2.79579E+01
  -2.67987E+01 -2.68325E+01 -2.20657E+01 -2.50602E+01 -2.38694E+01 -2.96208E+01 -2.57000E+01 -2.93745E+01 -2.74269E+01 -2.99861E+01
  -2.79499E+01 -2.89177E+01 -2.82808E+01 -2.87200E+01 -2.88181E+01 -2.83450E+01 -2.98093E+01 -3.11345E+01 -2.78295E+01 -2.92589E+01
  -2.98368E+01 -3.09807E+01 -3.19606E+01 -3.14391E+01 -3.08748E+01 -3.06193E+01 -2.92940E+01 -2.74885E+01 -2.95246E+01 -3.20805E+01
  -3.13625E+01 -3.37157E+01 -3.23913E+01 -3.51285E+01 -3.38216E+01 -3.64681E+01 -3.01111E+01 -3.46507E+01 -3.40796E+01 -3.72291E+01
  -3.38528E+01 -3.57189E+01 -3.75892E+01 -3.58888E+01 -3.44615E+01 -3.35647E+01 -3.66648E+01 -3.58586E+01 -3.66525E+01 -3.83531E+01
  -3.78381E+01 -3.59640E+01 -3.55871E+01 -4.14212E+01 -3.40460E+01 -3.81960E+01 -3.86599E+01 -3.98049E+01 -3.86628E+01 -3.94583E+01
  -3.62736E+01 -3.98131E+01 -3.85906E+01 -3.93092E+01 -3.94032E+01 -3.94065E+01 -3.90576E+01 -4.07946E+01 -3.80681E+01 -4.12665E+01
  -4.03090E+01 -4.23668E+01 -4.22997E+01 -4.26249E+01 -4.04999E+01 -4.44415E+01 -4.30283E+01 -3.81789E+01 -4.21838E+01 -4.29453E+01
  -4.30804E+01 -4.19119E+01 -4.41698E+01 -3.91315E+01 -4.08004E+01 -3.94996E+01 -4.31330E+01 -4.13405E+01 -4.26244E+01 -3.72292E+01
  -3.96297E+01 -4.04088E+01 -3.86326E+01 -3.90057E+01 -3.70097E+01 -3.88975E+01 -3.71827E+01 -3.84879E+01 -3.64489E+01 -3.88201E+01
  -3.46164E+01 -3.38335E+01 -3.66635E+01 -3.49378E+01 -3.83324E+01 -3.58315E+01 -3.61137E+01 -3.48612E+01 -3.46407E+01 -3.23963E+01
  -3.09599E+01 -3.27420E+01 -2.90984E+01 -3.37359E+01 -3.40821E+01 -3.39709E+01 -3.31912E+01 -2.86544E+01 -2.71252E+01 -2.83756E+01
  -2.55240E+01 -2.32130E+01 -2.41179E+01 -2.23434E+01 -2.23445E+01 -2.33568E+01 -1.35082E+01 -2.08766E+01 -1.94771E+01 -1.53509E+01
  -1.59790E+01 -1.15680E+01 -1.18221E+01 -8.90316E+00 -7.74066E+00 -6.52851E+00 -6.44655E+00 -4.69944E+00  1.50734E+00  4.00899E+00
   7.01121E+00  1.07520E+01  1.13621E+01  1.70814E+01  2.13644E+01  2.73450E+01  2.97352E+01  3.59369E+01  3.93359E+01  4.35353E+01
   5.04095E+01  5.95449E+01  6.68294E+01  7.34500E+01  8.39042E+01  9.22285E+01  1.03974E+02  1.15009E+02  1.29392E+02  1.39877E+02
   1.54619E+02  1.66835E+02  1.82412E+02  1.99226E+02  2.13938E+02  2.33233E+02  2.49132E+02  2.66491E+02  2.85873E+02  3.01835E+02
   3.21143E+02  3.33868E+02  3.44002E+02  3.52359E+02  3.61541E+02  3.65832E+02  3.64160E+02  3.58128E+02  3.52906E+02  3.45815E+02
   3.31197E+02  3.17623E+02  3.01984E+02  2.85029E+02  2.74126E+02  2.53585E+02  2.36590E+02  2.24967E+02  2.07192E+02  1.91853E+02
   1.78400E+02  1.60997E+02  1.45551E+02  1.30950E+02  1.17100E+02  1.02065E+02  9.12828E+01  7.60844E+01  6.49296E+01  5.10521E+01
   4.88569E+01  3.99149E+01  2.89412E+01  2.19111E+01  1.56142E+01  9.43525E+00  7.13852E+00  2.01628E+00  1.34468E+00 -6.55622E+00
  -9.14865E+00 -1.08771E+01 -1.71451E+01 -1.49410E+01 -1.56126E+01 -1.49976E+01 -1.76418E+01 -2.12396E+01 -2.21174E+01 -2.34839E+01
  -1.85612E+01 -2.03923E+01 -2.05290E+01 -2.34988E+01 -2.26545E+01 -2.21494E+01 -2.35729E+01 -2.42677E+01 -2.25344E+01 -2.44268E+01
  -2.75331E+01 -2.36083E+01 -2.60422E+01 -2.65231E+01 -2.60868E+01 -2.92837E+01 -2.73293E+01 -3.03418E+01 -2.81561E+01 -3.03131E+01
  -3.06036E+01 -3.01435E+01 -3.30233E+01 -3.37156E+01 -3.29279E+01 -3.52508E+01 -3.42982E+01 -3.61960E+01 -3.67732E+01 -3.79315E+01
  -4.02066E+01 -3.84444E+01 -3.96124E+01 -3.79359E+01 -3.83841E+01 -4.10491E+01 -4.01031E+01 -3.89275E+01 -4.08541E+01 -4.16497E+01
  -4.05913E+01 -4.39877E+01 -4.31992E+01 -4.25876E+01 -4.25177E+01 -4.40080E+01 -4.29871E+01 -4.34933E+01 -4.49939E+01 -4.63838E+01
  -4.59276E+01 -4.26779E+01 -4.44634E+01 -4.40566E+01 -4.44726E+01 -4.59466E+01 -4.40597E+01 -4.51274E+01 -4.55329E+01 -4.67374E+01
  -4.54241E+01 -4.66458E+01 -4.12160E+01 -4.61337E+01 -4.42389E+01 -4.40908E+01 -4.23578E+01 -4.73530E+01 -4.56609E+01 -4.50014E+01
  -4.33081E+01 -4.37455E+01 -4.50760E+01 -4.62000E+01 -4.31495E+01 -4.24206E+01 -4.58903E+01 -4.22344E+01 -4.54774E+01 -4.75564E+01
  -4.17726E+01 -4.52374E+01 -4.51768E+01 -4.50070E+01 -4.09786E+01 -4.15125E+01 -4.21829E+01 -4.75375E+01 -3.84884E+01 -4.40400E+01
  -4.44184E+01 -4.05957E+01 -4.14328E+01 -4.11099E+01 -4.03356E+01 -4.00878E+01 -4.19799E+01 -4.13103E+01 -3.85458E+01 -4.06476E+01
  -4.00193E+01 -4.27783E+01 -3.90070E+01 -3.97850E+01 -4.00030E+01 -3.90697E+01 -3.88749E+01 -3.95011E+01
 NY points of the fit to the data follow
   1.66991E+00  3.90420E+00  1.39032E+00  2.94386E+00  1.27107E+00  2.65804E+00  1.54428E+00  2.64132E+00  1.83074E+00  2.36095E+00
   1.80364E+00  2.22613E+00  1.66551E+00  2.14771E+00  1.50624E+00  2.01690E+00  1.48628E+00  1.88998E+00  1.27980E+00  1.52206E+00
   7.09248E-01  9.13352E-01  2.46046E-01  2.65525E-01 -3.49423E-01 -6.48530E-01 -9.65984E-01 -1.22142E+00 -1.34422E+00 -1.90823E+00
  -1.71419E+00 -2.29654E+00 -1.68243E+00 -2.39508E+00 -1.83909E+00 -2.60258E+00 -1.89320E+00 -2.81106E+00 -2.19815E+00 -3.18757E+00
  -2.78117E+00 -3.67660E+00 -3.38907E+00 -4.22815E+00 -3.96067E+00 -4.63619E+00 -4.50778E+00 -4.96159E+00 -4.89200E+00 -5.25656E+00
  -5.24570E+00 -5.54881E+00 -5.61384E+00 -5.81984E+00 -5.93579E+00 -6.12890E+00 -6.25976E+00 -6.43655E+00 -6.57817E+00 -6.74387E+00
  -6.91618E+00 -7.09595E+00 -7.27833E+00 -7.46299E+00 -7.64709E+00 -7.83268E+00 -8.01720E+00 -8.20280E+00 -8.38715E+00 -8.57263E+00
  -8.75683E+00 -8.94247E+00 -9.12693E+00 -9.31263E+00 -9.49697E+00 -9.68279E+00 -9.86728E+00 -1.00534E+01 -1.02381E+01 -1.04244E+01
  -1.06092E+01 -1.07956E+01 -1.09805E+01 -1.11671E+01 -1.13521E+01 -1.15389E+01 -1.17239E+01 -1.19106E+01 -1.20957E+01 -1.22824E+01
  -1.24678E+01 -1.26544E+01 -1.28399E+01 -1.30264E+01 -1.32122E+01 -1.33987E+01 -1.35848E+01 -1.37713E+01 -1.39576E+01 -1.41440E+01
  -1.43304E+01 -1.45170E+01 -1.47038E+01 -1.48904E+01 -1.50773E+01 -1.52638E+01 -1.54506E+01 -1.56366E+01 -1.58241E+01 -1.60099E+01
  -1.61979E+01 -1.63832E+01 -1.65714E+01 -1.67553E+01 -1.69431E+01 -1.71232E+01 -1.73096E+01 -1.74918E+01 -1.76801E+01 -1.78628E+01
  -1.80507E+01 -1.82307E+01 -1.84151E+01 -1.85973E+01 -1.87798E+01 -1.89671E+01 -1.91480E+01 -1.93387E+01 -1.95168E+01 -1.97139E+01
  -1.98884E+01 -2.00913E+01 -2.02630E+01 -2.04743E+01 -2.06441E+01 -2.08554E+01 -2.10198E+01 -2.12361E+01 -2.13995E+01 -2.16169E+01
  -2.17809E+01 -2.19954E+01 -2.21605E+01 -2.23742E+01 -2.25441E+01 -2.27585E+01 -2.29366E+01 -2.31464E+01 -2.33299E+01 -2.35371E+01
  -2.37250E+01 -2.39296E+01 -2.41215E+01 -2.43215E+01 -2.45135E+01 -2.47097E+01 -2.49015E+01 -2.50964E+01 -2.52885E+01 -2.54815E+01
  -2.56736E+01 -2.58649E+01 -2.60562E+01 -2.62471E+01 -2.64379E+01 -2.66286E+01 -2.68193E+01 -2.70115E+01 -2.72024E+01 -2.73954E+01
  -2.75857E+01 -2.77785E+01 -2.79664E+01 -2.81592E+01 -2.83449E+01 -2.85378E+01 -2.87220E+01 -2.89148E+01 -2.90963E+01 -2.92891E+01
  -2.94688E+01 -2.96567E+01 -2.98337E+01 -3.00186E+01 -3.01951E+01 -3.03770E+01 -3.05553E+01 -3.07321E+01 -3.09121E+01 -3.10843E+01
  -3.12686E+01 -3.14375E+01 -3.16249E+01 -3.17875E+01 -3.19756E+01 -3.21353E+01 -3.23241E+01 -3.24767E+01 -3.26597E+01 -3.28114E+01
  -3.29903E+01 -3.31374E+01 -3.33096E+01 -3.34568E+01 -3.36235E+01 -3.37739E+01 -3.39370E+01 -3.40881E+01 -3.42474E+01 -3.43993E+01
  -3.45547E+01 -3.47076E+01 -3.48604E+01 -3.50128E+01 -3.51624E+01 -3.53111E+01 -3.54566E+01 -3.56021E+01 -3.57434E+01 -3.58832E+01
  -3.60203E+01 -3.61572E+01 -3.62917E+01 -3.64243E+01 -3.65540E+01 -3.66807E+01 -3.68052E+01 -3.69273E+01 -3.70454E+01 -3.71640E+01
  -3.72755E+01 -3.73881E+01 -3.74914E+01 -3.76027E+01 -3.76996E+01 -3.78056E+01 -3.78936E+01 -3.79969E+01 -3.80777E+01 -3.81723E+01
  -3.82436E+01 -3.83319E+01 -3.83962E+01 -3.84719E+01 -3.85254E+01 -3.85885E+01 -3.86349E+01 -3.86850E+01 -3.87220E+01 -3.87601E+01
  -3.87894E+01 -3.88150E+01 -3.88352E+01 -3.88483E+01 -3.88576E+01 -3.88575E+01 -3.88536E+01 -3.88380E+01 -3.88184E+01 -3.87863E+01
  -3.87489E+01 -3.86998E+01 -3.86435E+01 -3.85749E+01 -3.84970E+01 -3.84057E+01 -3.83030E+01 -3.81859E+01 -3.80546E+01 -3.79067E+01
  -3.77416E+01 -3.75573E+01 -3.73526E+01 -3.71250E+01 -3.68724E+01 -3.65920E+01 -3.62812E+01 -3.59370E+01 -3.55564E+01 -3.51355E+01
  -3.46709E+01 -3.41585E+01 -3.35949E+01 -3.29765E+01 -3.22999E+01 -3.15616E+01 -3.07595E+01 -2.98916E+01 -2.89575E+01 -2.79573E+01
  -2.68925E+01 -2.57656E+01 -2.45808E+01 -2.33431E+01 -2.20592E+01 -2.07357E+01 -1.93794E+01 -1.79970E+01 -1.65940E+01 -1.51743E+01
  -1.37390E+01 -1.22847E+01 -1.08033E+01 -9.28040E+00 -7.69402E+00 -6.01126E+00 -4.18356E+00 -2.13118E+00  3.07806E-01  3.27139E+00
   5.77734E+00  8.92836E+00  1.19173E+01  1.58058E+01  1.96053E+01  2.45879E+01  2.85520E+01  3.46164E+01  3.98344E+01  4.67211E+01
   5.27817E+01  6.03226E+01  6.69289E+01  7.52991E+01  8.36432E+01  9.28223E+01  1.02627E+02  1.12558E+02  1.26317E+02  1.41023E+02
   1.55296E+02  1.67686E+02  1.83644E+02  1.97171E+02  2.16408E+02  2.31945E+02  2.49463E+02  2.67104E+02  2.86196E+02  3.02415E+02
   3.19378E+02  3.32468E+02  3.43538E+02  3.53770E+02  3.61150E+02  3.65716E+02  3.64554E+02  3.58455E+02  3.52258E+02  3.45390E+02
   3.33035E+02  3.17326E+02  3.01605E+02  2.86040E+02  2.71683E+02  2.54490E+02  2.38009E+02  2.22972E+02  2.08715E+02  1.91674E+02
   1.78161E+02  1.61049E+02  1.46278E+02  1.30253E+02  1.17024E+02  1.01837E+02  9.02036E+01  7.63981E+01  6.52821E+01  5.49877E+01
   4.62438E+01  3.75382E+01  3.01734E+01  2.22432E+01  1.58349E+01  1.02401E+01  5.50859E+00  1.42835E+00 -2.14015E+00 -5.27877E+00
  -8.04490E+00 -1.04809E+01 -1.26211E+01 -1.44939E+01 -1.61242E+01 -1.75333E+01 -1.87409E+01 -1.97645E+01 -2.06213E+01 -2.13284E+01
  -2.19036E+01 -2.23646E+01 -2.27298E+01 -2.30174E+01 -2.32472E+01 -2.34386E+01 -2.36118E+01 -2.37853E+01 -2.39770E+01 -2.42026E+01
  -2.44764E+01 -2.48096E+01 -2.52107E+01 -2.56841E+01 -2.62314E+01 -2.68503E+01 -2.75362E+01 -2.82814E+01 -2.90763E+01 -2.99091E+01
  -3.07678E+01 -3.16393E+01 -3.25118E+01 -3.33737E+01 -3.42148E+01 -3.50260E+01 -3.58003E+01 -3.65320E+01 -3.72180E+01 -3.78558E+01
  -3.84449E+01 -3.89854E+01 -3.94788E+01 -3.99274E+01 -4.03340E+01 -4.07014E+01 -4.10328E+01 -4.13311E+01 -4.15996E+01 -4.18411E+01
  -4.20587E+01 -4.22545E+01 -4.24309E+01 -4.25897E+01 -4.27329E+01 -4.28620E+01 -4.29786E+01 -4.30837E+01 -4.31783E+01 -4.32633E+01
  -4.33398E+01 -4.34083E+01 -4.34697E+01 -4.35242E+01 -4.35724E+01 -4.36147E+01 -4.36517E+01 -4.36836E+01 -4.37108E+01 -4.37334E+01
  -4.37519E+01 -4.37662E+01 -4.37770E+01 -4.37841E+01 -4.37880E+01 -4.37884E+01 -4.37859E+01 -4.37804E+01 -4.37723E+01 -4.37615E+01
  -4.37481E+01 -4.37322E+01 -4.37141E+01 -4.36937E+01 -4.36713E+01 -4.36467E+01 -4.36203E+01 -4.35917E+01 -4.35615E+01 -4.35295E+01
  -4.34960E+01 -4.34607E+01 -4.34238E+01 -4.33853E+01 -4.33455E+01 -4.33043E+01 -4.32618E+01 -4.32178E+01 -4.31727E+01 -4.31262E+01
  -4.30787E+01 -4.30299E+01 -4.29801E+01 -4.29291E+01 -4.28771E+01 -4.28240E+01 -4.27700E+01 -4.27150E+01 -4.26591E+01 -4.26021E+01
  -4.25442E+01 -4.24854E+01 -4.24258E+01 -4.23652E+01 -4.23036E+01 -4.22409E+01 -4.21773E+01 -4.21124E+01
 NY background values follow
     2.642E+00    2.464E+00    2.285E+00    2.106E+00    1.928E+00    1.749E+00    1.571E+00    1.392E+00    1.214E+00    1.036E+00
     8.573E-01    6.790E-01    5.008E-01    3.227E-01    1.445E-01   -3.361E-02   -2.117E-01   -3.898E-01   -5.679E-01   -7.460E-01
    -9.241E-01   -1.102E+00   -1.280E+00   -1.458E+00   -1.636E+00   -1.815E+00   -1.993E+00   -2.171E+00   -2.349E+00   -2.527E+00
    -2.706E+00   -2.884E+00   -3.063E+00   -3.241E+00   -3.419E+00   -3.598E+00   -3.777E+00   -3.955E+00   -4.134E+00   -4.313E+00
    -4.492E+00   -4.671E+00   -4.850E+00   -5.029E+00   -5.209E+00   -5.388E+00   -5.568E+00   -5.747E+00   -5.927E+00   -6.107E+00
    -6.287E+00   -6.467E+00   -6.647E+00   -6.828E+00   -7.008E+00   -7.189E+00   -7.370E+00   -7.551E+00   -7.732E+00   -7.913E+00
    -8.095E+00   -8.276E+00   -8.458E+00   -8.640E+00   -8.822E+00   -9.004E+00   -9.187E+00   -9.370E+00   -9.553E+00   -9.736E+00
    -9.919E+00   -1.010E+01   -1.029E+01   -1.047E+01   -1.065E+01   -1.084E+01   -1.102E+01   -1.121E+01   -1.139E+01   -1.158E+01
    -1.176E+01   -1.195E+01   -1.214E+01   -1.232E+01   -1.251E+01   -1.270E+01   -1.288E+01   -1.307E+01   -1.326E+01   -1.345E+01
    -1.364E+01   -1.382E+01   -1.401E+01   -1.420E+01   -1.439E+01   -1.458E+01   -1.477E+01   -1.496E+01   -1.515E+01   -1.534E+01
    -1.553E+01   -1.572E+01   -1.591E+01   -1.611E+01   -1.630E+01   -1.649E+01   -1.668E+01   -1.687E+01   -1.707E+01   -1.726E+01
    -1.745E+01   -1.764E+01   -1.784E+01   -1.803E+01   -1.823E+01   -1.842E+01   -1.861E+01   -1.881E+01   -1.900E+01   -1.920E+01
    -1.939E+01   -1.959E+01   -1.979E+01   -1.998E+01   -2.018E+01   -2.037E+01   -2.057E+01   -2.077E+01   -2.096E+01   -2.116E+01
    -2.136E+01   -2.156E+01   -2.175E+01   -2.195E+01   -2.215E+01   -2.235E+01   -2.255E+01   -2.275E+01   -2.294E+01   -2.314E+01
    -2.334E+01   -2.354E+01   -2.374E+01   -2.394E+01   -2.414E+01   -2.434E+01   -2.454E+01   -2.474E+01   -2.494E+01   -2.514E+01
    -2.535E+01   -2.555E+01   -2.575E+01   -2.595E+01   -2.615E+01   -2.635E+01   -2.655E+01   -2.676E+01   -2.696E+01   -2.716E+01
    -2.736E+01   -2.757E+01   -2.777E+01   -2.797E+01   -2.818E+01   -2.838E+01   -2.858E+01   -2.879E+01   -2.899E+01   -2.920E+01
    -2.940E+01   -2.960E+01   -2.981E+01   -3.001E+01   -3.022E+01   -3.042E+01   -3.062E+01   -3.083E+01   -3.103E+01   -3.124E+01
    -3.144E+01   -3.164E+01   -3.185E+01   -3.205E+01   -3.225E+01   -3.246E+01   -3.266E+01   -3.286E+01   -3.306E+01   -3.326E+01
    -3.346E+01   -3.366E+01   -3.386E+01   -3.406E+01   -3.426E+01   -3.446E+01   -3.466E+01   -3.486E+01   -3.506E+01   -3.525E+01
    -3.545E+01   -3.564E+01   -3.584E+01   -3.603E+01   -3.623E+01   -3.642E+01   -3.661E+01   -3.680E+01   -3.699E+01   -3.718E+01
    -3.737E+01   -3.756E+01   -3.775E+01   -3.793E+01   -3.812E+01   -3.830E+01   -3.849E+01   -3.867E+01   -3.885E+01   -3.903E+01
    -3.921E+01   -3.939E+01   -3.957E+01   -3.974E+01   -3.992E+01   -4.009E+01   -4.027E+01   -4.044E+01   -4.061E+01   -4.078E+01
    -4.095E+01   -4.111E+01   -4.128E+01   -4.144E+01   -4.160E+01   -4.177E+01   -4.193E+01   -4.208E+01   -4.224E+01   -4.240E+01
    -4.255E+01   -4.271E+01   -4.286E+01   -4.301E+01   -4.315E+01   -4.330E+01   -4.345E+01   -4.359E+01   -4.373E+01   -4.387E+01
    -4.401E+01   -4.415E+01   -4.428E+01   -4.441E+01   -4.455E+01   -4.468E+01   -4.480E+01   -4.493E+01   -4.506E+01   -4.518E+01
    -4.530E+01   -4.542E+01   -4.554E+01   -4.566E+01   -4.577E+01   -4.589E+01   -4.600E+01   -4.611E+01   -4.622E+01   -4.633E+01
    -4.644E+01   -4.654E+01   -4.664E+01   -4.675E+01   -4.685E+01   -4.695E+01   -4.704E+01   -4.714E+01   -4.723E+01   -4.733E+01
    -4.742E+01   -4.751E+01   -4.760E+01   -4.769E+01   -4.777E+01   -4.786E+01   -4.794E+01   -4.802E+01   -4.810E+01   -4.818E+01
    -4.826E+01   -4.834E+01   -4.841E+01   -4.848E+01   -4.856E+01   -4.863E+01   -4.870E+01   -4.877E+01   -4.883E+01   -4.890E+01
    -4.897E+01   -4.903E+01   -4.909E+01   -4.915E+01   -4.921E+01   -4.927E+01   -4.933E+01   -4.939E+01   -4.944E+01   -4.949E+01
    -4.955E+01   -4.960E+01   -4.965E+01   -4.970E+01   -4.975E+01   -4.979E+01   -4.984E+01   -4.988E+01   -4.993E+01   -4.997E+01
    -5.001E+01   -5.005E+01   -5.009E+01   -5.013E+01   -5.017E+01   -5.020E+01   -5.024E+01   -5.027E+01   -5.031E+01   -5.034E+01
    -5.037E+01   -5.040E+01   -5.043E+01   -5.046E+01   -5.048E+01   -5.051E+01   -5.053E+01   -5.056E+01   -5.058E+01   -5.060E+01
    -5.062E+01   -5.064E+01   -5.066E+01   -5.068E+01   -5.070E+01   -5.071E+01   -5.073E+01   -5.074E+01   -5.076E+01   -5.077E+01
    -5.078E+01   -5.079E+01   -5.080E+01   -5.081E+01   -5.082E+01   -5.082E+01   -5.083E+01   -5.084E+01   -5.084E+01   -5.084E+01
    -5.084E+01   -5.085E+01   -5.085E+01   -5.084E+01   -5.084E+01   -5.084E+01   -5.084E+01   -5.083E+01   -5.083E+01   -5.082E+01
    -5.081E+01   -5.080E+01   -5.080E+01   -5.079E+01   -5.077E+01   -5.076E+01   -5.075E+01   -5.074E+01   -5.072E+01   -5.071E+01
    -5.069E+01   -5.067E+01   -5.065E+01   -5.064E+01   -5.062E+01   -5.059E+01   -5.057E+01   -5.055E+01   -5.053E+01   -5.050E+01
    -5.048E+01   -5.045E+01   -5.042E+01   -5.040E+01   -5.037E+01   -5.034E+01   -5.031E+01   -5.028E+01   -5.024E+01   -5.021E+01
    -5.018E+01   -5.014E+01   -5.011E+01   -5.007E+01   -5.003E+01   -4.999E+01   -4.995E+01   -4.991E+01   -4.987E+01   -4.983E+01
    -4.979E+01   -4.975E+01   -4.970E+01   -4.966E+01   -4.961E+01   -4.956E+01   -4.952E+01   -4.947E+01   -4.942E+01   -4.937E+01
    -4.932E+01   -4.927E+01   -4.921E+01   -4.916E+01   -4.911E+01   -4.905E+01   -4.900E+01   -4.894E+01   -4.888E+01   -4.883E+01
    -4.877E+01   -4.871E+01   -4.865E+01   -4.859E+01   -4.853E+01   -4.847E+01   -4.840E+01   -4.834E+01   -4.828E+01   -4.821E+01
    -4.815E+01   -4.808E+01   -4.802E+01   -4.795E+01   -4.788E+01   -4.782E+01   -4.775E+01   -4.768E+01   -4.761E+01   -4.754E+01
    -4.747E+01   -4.740E+01   -4.733E+01   -4.726E+01   -4.718E+01   -4.711E+01   -4.704E+01   -4.696E+01   -4.689E+01   -4.681E+01
    -4.674E+01   -4.666E+01   -4.659E+01   -4.651E+01   -4.643E+01   -4.636E+01   -4.628E+01   -4.620E+01   -4.612E+01   -4.604E+01
    -4.597E+01   -4.589E+01   -4.581E+01   -4.573E+01   -4.565E+01   -4.557E+01   -4.549E+01   -4.540E+01   -4.532E+01   -4.524E+01
    -4.516E+01   -4.508E+01   -4.500E+01   -4.491E+01   -4.483E+01   -4.475E+01   -4.466E+01   -4.458E+01   -4.450E+01   -4.441E+01
    -4.433E+01   -4.425E+01   -4.416E+01   -4.408E+01   -4.399E+01   -4.391E+01   -4.382E+01   -4.374E+01
 Ala      Conc. = 3.41E+03
