 LCModel (Version 6.3-1L) Copyright: S.W. Provencher.          Ref.: Magn. Reson. Med. 30:672-679 (1993).                
 Slice#3 Row#2 Col#14  K_02_press_1_raw_act
 36 lines in following concentration table = NCONC+1
    Conc.  %SD /Cr+PCr  Metabolite                                         
 1.19E+03  12%   8.534 Ala                                                 
    8.382 253% 6.0E-02 Asp                                                 
  139.161  19%   1.000 Cr                                                  
    0.000 999%   0.000 PCr                                                 
    6.490 197% 4.7E-02 GABA                                                
    7.375 173% 5.3E-02 Glc                                                 
 1.33E+03  19%   9.546 Gln                                                 
  636.093  49%   4.571 Glu                                                 
   11.905  86% 8.6E-02 GPC                                                 
    0.000 999%   0.000 PCh                                                 
    0.000 999%   0.000 GSH                                                 
  363.882  30%   2.615 Ins                                                 
    0.000 999%   0.000 Lac                                                 
   79.986  39%   0.575 NAA                                                 
    0.000 999%   0.000 NAAG                                                
    1.472 280% 1.1E-02 Scyllo                                              
   11.073 188% 8.0E-02 Tau                                                 
    0.000 999%   0.000 -CrCH2                                              
   11.905  86% 8.6E-02 GPC+PCh                                             
   79.986  39%   0.575 NAA+NAAG                                            
  139.161  19%   1.000 Cr+PCr                                              
 1.96E+03  20%  14.117 Glu+Gln                                             
    0.000 999%   0.000 Lip13a                                              
    0.000 999%   0.000 Lip13b                                              
 6.34E-04 999% 4.6E-06 Lip09                                               
 9.08E-03 999% 6.5E-05 MM09                                                
    0.000 999%   0.000 Lip20                                               
    0.000 999%   0.000 MM20                                                
 1.81E-03 999% 1.3E-05 MM12                                                
 2.29E-02 999% 1.6E-04 MM14                                                
 1.15E-02 999% 8.3E-05 MM17                                                
    0.000 999%   0.000 Lip13a+Lip13b                                       
 2.47E-02 999% 1.8E-04 MM14+Lip13a+Lip13b+MM12                             
 9.71E-03 999% 7.0E-05 MM09+Lip09                                          
    0.000 999%   0.000 MM20+Lip20                                          
   6 lines in following misc. output table
  FWHM = 0.168 ppm    S/N =   1                                            
  Data shift = 0.107 ppm                                                   
  Ph:  17 deg      27.5 deg/ppm                                            
  alphaB,S = 8.5E+01,   2.0E+02                                            
   11 spline knots.   Ns = 9(2)                                            
   2 inflections.     1 extrema                                            
  498 points on ppm-axis = NY
      4.000000     3.992357     3.984714     3.977070     3.969427     3.961784     3.954141     3.946497     3.938854     3.931211
      3.923568     3.915925     3.908281     3.900638     3.892995     3.885352     3.877708     3.870065     3.862422     3.854779
      3.847136     3.839492     3.831849     3.824206     3.816563     3.808919     3.801276     3.793633     3.785990     3.778347
      3.770703     3.763060     3.755417     3.747774     3.740130     3.732487     3.724844     3.717201     3.709558     3.701914
      3.694271     3.686628     3.678985     3.671341     3.663698     3.656055     3.648412     3.640769     3.633125     3.625482
      3.617839     3.610196     3.602552     3.594909     3.587266     3.579623     3.571980     3.564336     3.556693     3.549050
      3.541407     3.533763     3.526120     3.518477     3.510834     3.503191     3.495547     3.487904     3.480261     3.472618
      3.464974     3.457331     3.449688     3.442045     3.434402     3.426758     3.419115     3.411472     3.403829     3.396185
      3.388542     3.380899     3.373256     3.365613     3.357969     3.350326     3.342683     3.335040     3.327396     3.319753
      3.312110     3.304467     3.296824     3.289180     3.281537     3.273894     3.266251     3.258607     3.250964     3.243321
      3.235678     3.228034     3.220391     3.212748     3.205105     3.197462     3.189818     3.182175     3.174532     3.166889
      3.159245     3.151602     3.143959     3.136316     3.128673     3.121029     3.113386     3.105743     3.098100     3.090456
      3.082813     3.075170     3.067527     3.059884     3.052240     3.044597     3.036954     3.029311     3.021667     3.014024
      3.006381     2.998738     2.991095     2.983451     2.975808     2.968165     2.960522     2.952878     2.945235     2.937592
      2.929949     2.922306     2.914662     2.907019     2.899376     2.891733     2.884089     2.876446     2.868803     2.861160
      2.853517     2.845873     2.838230     2.830587     2.822944     2.815300     2.807657     2.800014     2.792371     2.784728
      2.777084     2.769441     2.761798     2.754155     2.746511     2.738868     2.731225     2.723582     2.715939     2.708295
      2.700652     2.693009     2.685366     2.677722     2.670079     2.662436     2.654793     2.647150     2.639506     2.631863
      2.624220     2.616577     2.608933     2.601290     2.593647     2.586004     2.578361     2.570717     2.563074     2.555431
      2.547788     2.540144     2.532501     2.524858     2.517215     2.509572     2.501928     2.494285     2.486642     2.478999
      2.471355     2.463712     2.456069     2.448426     2.440783     2.433139     2.425496     2.417853     2.410210     2.402566
      2.394923     2.387280     2.379637     2.371994     2.364350     2.356707     2.349064     2.341421     2.333777     2.326134
      2.318491     2.310848     2.303205     2.295561     2.287918     2.280275     2.272632     2.264988     2.257345     2.249702
      2.242059     2.234416     2.226772     2.219129     2.211486     2.203843     2.196199     2.188556     2.180913     2.173270
      2.165627     2.157983     2.150340     2.142697     2.135054     2.127410     2.119767     2.112124     2.104481     2.096838
      2.089194     2.081551     2.073908     2.066265     2.058621     2.050978     2.043335     2.035692     2.028049     2.020405
      2.012762     2.005119     1.997476     1.989833     1.982190     1.974546     1.966903     1.959260     1.951617     1.943974
      1.936331     1.928688     1.921045     1.913402     1.905759     1.898115     1.890472     1.882829     1.875186     1.867543
      1.859900     1.852257     1.844614     1.836971     1.829327     1.821684     1.814041     1.806398     1.798755     1.791112
      1.783469     1.775826     1.768183     1.760540     1.752896     1.745253     1.737610     1.729967     1.722324     1.714681
      1.707038     1.699395     1.691752     1.684108     1.676465     1.668822     1.661179     1.653536     1.645893     1.638250
      1.630607     1.622964     1.615321     1.607677     1.600034     1.592391     1.584748     1.577105     1.569462     1.561819
      1.554176     1.546533     1.538890     1.531246     1.523603     1.515960     1.508317     1.500674     1.493031     1.485388
      1.477745     1.470102     1.462458     1.454815     1.447172     1.439529     1.431886     1.424243     1.416600     1.408957
      1.401314     1.393671     1.386027     1.378384     1.370741     1.363098     1.355455     1.347812     1.340169     1.332526
      1.324883     1.317240     1.309596     1.301953     1.294310     1.286667     1.279024     1.271381     1.263738     1.256095
      1.248452     1.240808     1.233165     1.225522     1.217879     1.210236     1.202593     1.194950     1.187307     1.179664
      1.172021     1.164377     1.156734     1.149091     1.141448     1.133805     1.126162     1.118519     1.110876     1.103233
      1.095590     1.087946     1.080303     1.072660     1.065017     1.057374     1.049731     1.042088     1.034445     1.026802
      1.019158     1.011515     1.003872     0.996229     0.988586     0.980943     0.973300     0.965657     0.958014     0.950371
      0.942727     0.935084     0.927441     0.919798     0.912155     0.904512     0.896869     0.889226     0.881583     0.873940
      0.866296     0.858653     0.851010     0.843367     0.835724     0.828081     0.820438     0.812795     0.805152     0.797508
      0.789865     0.782222     0.774579     0.766936     0.759293     0.751650     0.744007     0.736364     0.728721     0.721077
      0.713434     0.705791     0.698148     0.690505     0.682862     0.675219     0.667576     0.659933     0.652290     0.644646
      0.637003     0.629360     0.621717     0.614074     0.606431     0.598788     0.591145     0.583502     0.575858     0.568215
      0.560572     0.552929     0.545286     0.537643     0.530000     0.522357     0.514714     0.507071     0.499427     0.491784
      0.484141     0.476498     0.468855     0.461212     0.453569     0.445925     0.438282     0.430639     0.422996     0.415353
      0.407710     0.400067     0.392424     0.384780     0.377137     0.369494     0.361851     0.354208     0.346565     0.338922
      0.331278     0.323635     0.315992     0.308349     0.300706     0.293063     0.285420     0.277777     0.270133     0.262490
      0.254847     0.247204     0.239561     0.231918     0.224275     0.216631     0.208988     0.201345
 NY phased data points follow
   3.85996E+00  2.97399E+00  5.95461E+00  1.08219E+00  2.95070E+00  2.71252E+00  2.38506E+00  4.75058E+00  3.68378E+00  3.62466E+00
   3.33766E+00  3.73298E+00  2.36345E+00  4.41607E+00  4.28212E+00  4.50122E+00  3.70957E+00  4.64106E+00  3.39399E+00  3.31473E+00
   3.67626E+00  3.40276E+00  3.77115E+00  1.87748E+00  3.87792E+00  2.65074E+00  2.19723E+00  3.55560E+00  2.22603E+00  9.51807E-01
   1.45463E+00  1.38263E+00  3.87247E+00  2.93106E+00  2.13328E+00  3.10449E+00  2.25539E+00  1.15130E+00  2.97337E+00  3.86512E-01
   9.77095E-01  2.82905E+00  2.27362E+00  3.45547E+00  2.53378E+00  2.24847E+00  1.29115E+00  4.33826E+00  2.01578E+00  3.22634E+00
   7.14855E-01  2.80922E+00  1.94250E+00  1.61070E+00  3.05670E+00  3.00608E+00  2.23882E+00  1.25281E+00  9.07615E-01  3.13088E+00
   1.46927E+00  2.96464E+00  1.10484E-01  1.18059E+00  2.77863E+00  2.59232E+00  1.66063E+00  1.26104E+00  1.01838E+00  2.83843E+00
   1.43011E+00  5.20166E+00  1.07346E-02  1.41839E+00  2.96869E+00  7.64199E-01  2.30006E+00 -2.40943E-02  2.32475E+00  1.52094E+00
   6.09939E-03  1.04019E+00  2.23387E+00 -7.54919E-01  7.82910E-01  3.00984E-01 -2.93607E-01  6.99175E-01  2.41783E+00  9.86331E-01
  -8.29714E-01  7.03650E-01  6.58622E-01  8.24119E-01 -9.20065E-01 -9.46423E-01  1.19927E+00  2.17123E-01  6.00894E-01  3.07699E+00
   9.80593E-01  1.42460E+00  1.55238E+00 -1.51378E+00 -1.15251E-01  3.00467E+00  2.75994E-01  1.82745E+00  1.33844E+00  1.77817E+00
  -4.04227E-02  1.64943E+00  5.34948E-01  2.58501E+00  1.75780E+00  7.46340E-01  4.68222E-01  1.18240E+00  7.05913E-01  2.99884E+00
  -2.00415E-01  2.58807E+00  1.49664E+00  1.77399E+00  8.66373E-01  3.70912E-01  1.85405E+00  3.24241E+00  1.71151E+00  8.11911E-01
   2.78397E+00  2.09116E+00  1.39335E+00  1.39989E+00  2.08952E+00 -2.63907E-01  1.32741E+00  2.20069E+00  1.24966E+00  5.94222E-01
   6.71287E-01 -8.95587E-01  3.09674E-01  1.26040E+00  2.14354E+00  2.22876E+00  8.45338E-01  1.61342E-01  1.11765E+00  1.28518E+00
   1.58768E+00 -1.22483E+00  1.71872E-01  1.78801E+00 -4.19613E-01  2.79703E+00  1.83345E+00  1.27151E-01 -1.61707E-01 -2.04119E-01
  -1.51125E+00  1.54310E+00  2.75418E-01  9.08993E-01  2.19098E+00  6.07885E-01  4.88812E-01  5.68243E-01 -4.46603E-01 -9.34655E-01
  -1.21878E-01  1.16500E-01  4.05189E-01  7.74877E-01  9.13963E-01  3.15376E-01  1.17645E+00  3.20650E-01  7.89750E-01  1.13903E+00
  -3.90758E-01 -1.28817E+00 -2.92843E-02 -7.31266E-01  2.53817E-01 -2.62689E-01 -7.59587E-01 -2.14116E-01  3.46861E-01 -7.02714E-01
   9.58117E-01 -1.14023E+00 -8.63447E-01  1.55347E-01 -4.53384E-02  8.71656E-03  5.22631E-01  7.58373E-01 -6.95960E-02  3.87139E-01
   6.05576E-02  8.23395E-01  9.90255E-01 -1.14168E+00 -2.42022E+00  8.64652E-01 -2.61973E+00  1.47208E+00  2.02766E+00  1.02116E+00
   1.04415E+00 -4.85358E-01  1.20670E+00  1.61946E+00 -1.27213E-02 -1.05160E+00  5.39614E-02  2.19661E+00 -3.61619E-01  2.33088E+00
  -7.38637E-01  3.36037E-01 -4.82853E-01  1.57525E+00  6.33052E-01  1.94024E+00 -1.16566E+00  1.29862E+00  2.61757E+00  9.91830E-01
   1.42392E+00  7.54492E-01  1.50482E+00  2.08901E+00  1.85896E-01 -5.90266E-01 -1.77980E+00  9.86051E-02 -4.10112E-01 -2.75907E-01
  -8.63802E-01  2.66790E-01 -6.78230E-01  1.01544E+00  8.74953E-02  2.07048E+00 -5.01259E-01 -6.73962E-01 -1.01931E+00 -1.91638E+00
   6.57051E-01 -8.33564E-01  7.00475E-01  6.18579E-01  2.54010E+00  1.70688E+00  4.80908E-01 -1.06316E+00  2.52163E+00  4.23673E+00
   2.13780E+00  2.45368E+00  1.64460E+00  1.54283E+00  1.80677E+00  2.89161E+00  2.76146E+00  2.51410E+00  8.00925E-01  3.93033E-01
   7.91056E-01  6.35961E-02  2.96937E+00  2.28224E+00  2.84988E-01  1.55417E+00  7.89463E-01  8.20924E-01 -2.22961E-01  1.65397E+00
   5.34564E-01  6.30143E-01  3.72204E-01 -4.04862E-01  1.01546E+00  1.48342E+00  5.74146E-01  1.68203E+00  5.86519E-01 -1.49489E-02
  -4.22351E-01  2.40658E-01  7.11352E-01  2.02173E+00  5.21580E-01 -1.27280E+00  1.44451E+00  3.33005E+00  1.71656E+00  3.27756E-01
   5.04928E-01 -5.12880E-01  2.73738E+00  1.04178E+00  3.33636E+00  2.85744E+00  9.20950E-01  2.37881E+00  9.54291E-01  3.04955E+00
   2.10500E+00  2.93133E+00  2.24659E+00  3.49959E+00  3.59201E+00  3.36456E+00  4.46875E+00  4.05542E+00  2.19679E+00  2.98002E+00
   2.54485E+00  5.69574E+00  4.25635E+00  4.17475E+00  2.22618E+00  6.13531E+00  3.01439E+00  3.55090E+00  1.38668E+00  1.80028E+00
   1.94751E+00  3.12151E+00  1.40663E+00  2.99774E+00  1.55111E+00  1.18620E+00  2.18843E+00  1.59239E+00  2.60951E+00  2.41844E+00
  -7.98935E-01  7.81953E-01  6.83420E-01  2.37751E+00  1.28593E+00 -9.80237E-02  9.08171E-01  7.85196E-01 -7.65172E-02  5.28107E-01
   8.38487E-01  1.19881E+00  2.36214E-01  2.19290E+00  6.97497E-01  1.26772E-01  1.15091E+00  1.02482E+00  1.22856E-01  8.38093E-01
  -7.11156E-01  5.60111E-01  1.50032E+00 -7.53722E-01 -7.95142E-01  1.22498E+00  1.92459E+00  2.15262E+00  9.87422E-01  2.51454E+00
  -7.49045E-01  1.64292E-01  8.81084E-01  6.30879E-02 -4.00538E-01 -2.78467E+00 -1.85532E-01  7.66771E-01 -7.35441E-01  8.27568E-01
   1.52984E+00  1.49721E+00  1.27805E+00 -3.43612E-01  1.81090E+00  5.13000E-01  8.04742E-01  6.20678E-01  1.32517E+00  7.85932E-01
  -1.82402E+00  2.51718E+00  6.37167E-01  2.54214E-01  1.70857E+00  3.43115E+00 -4.03394E-01  2.84915E-01  3.92315E-01 -1.21008E-01
  -9.29359E-01  3.56782E-01 -4.66753E-01  8.66870E-01  9.19709E-02 -6.58728E-01 -1.16811E+00  4.60147E-01 -2.48359E-01  5.69626E-01
   2.68405E-02  2.14942E+00 -7.44163E-01  5.60261E-01 -2.66020E-01  1.04982E-01 -4.58834E-01  5.99421E-01  1.12142E-01 -8.61626E-02
   8.74446E-01 -3.58666E-01 -6.52666E-01  3.23088E-01 -1.00877E+00 -1.04125E+00 -1.43913E+00  1.46201E+00  1.65283E+00  6.52002E-01
  -1.15228E+00  2.10016E+00  1.84996E+00 -7.11423E-01  1.16839E+00 -2.82810E-01 -2.35735E-01  1.27673E+00  7.05354E-01  1.45541E+00
   1.46346E+00  1.31930E+00 -3.56418E-01 -4.90103E-01 -7.02003E-01 -3.68393E-01 -3.39055E-01  4.65918E-01 -7.93200E-01  9.16572E-01
   4.64599E-01 -1.66192E+00  3.04588E-01 -3.67001E-01 -1.26748E-01 -9.04543E-02 -1.33796E+00 -9.20395E-01  1.29126E+00 -1.04325E+00
  -1.05172E+00 -1.28201E+00  1.50032E+00 -7.60079E-01  7.25894E-01 -1.00973E+00  8.97302E-02  4.26849E-01 -9.38932E-01  1.36761E+00
  -1.24856E+00  5.13474E-03  6.16466E-02 -7.59575E-02  3.20989E-01 -2.51572E-01  7.27637E-01  3.95951E-01 -1.75319E+00 -1.82770E-01
  -1.26987E+00 -3.41831E-01  1.15967E+00 -2.06138E+00 -3.45992E-02  3.09740E-01  5.79260E-01 -1.18860E+00 -1.85686E+00  2.62196E-01
  -1.57640E+00  2.42515E+00 -7.79070E-01 -3.97918E-01  1.87026E+00 -2.75818E-01  1.95311E+00 -6.49450E-01
 NY points of the fit to the data follow
   2.92072E+00  2.95957E+00  2.95301E+00  3.00216E+00  3.00179E+00  3.08369E+00  3.11363E+00  3.22227E+00  3.16969E+00  3.27599E+00
   3.10965E+00  3.22337E+00  2.96465E+00  3.13907E+00  2.88522E+00  3.17349E+00  2.88794E+00  3.23648E+00  2.88694E+00  3.23895E+00
   2.79474E+00  3.16127E+00  2.66185E+00  3.04476E+00  2.53205E+00  2.91725E+00  2.43039E+00  2.80451E+00  2.37396E+00  2.73565E+00
   2.37426E+00  2.71197E+00  2.42302E+00  2.74947E+00  2.52179E+00  2.76730E+00  2.59003E+00  2.75459E+00  2.61933E+00  2.69774E+00
   2.60750E+00  2.65720E+00  2.63588E+00  2.66153E+00  2.72375E+00  2.73407E+00  2.83312E+00  2.80848E+00  2.76492E+00  2.66187E+00
   2.51700E+00  2.39968E+00  2.23881E+00  2.19196E+00  2.14302E+00  2.16062E+00  2.15142E+00  2.13648E+00  2.10597E+00  2.04186E+00
   1.99831E+00  1.93482E+00  1.87762E+00  1.81165E+00  1.76532E+00  1.70252E+00  1.67069E+00  1.62219E+00  1.61773E+00  1.59639E+00
   1.60799E+00  1.56851E+00  1.56332E+00  1.50110E+00  1.48460E+00  1.40779E+00  1.38702E+00  1.29991E+00  1.28274E+00  1.18898E+00
   1.17548E+00  1.08738E+00  1.08301E+00  9.96887E-01  1.00481E+00  9.24324E-01  9.32244E-01  8.60173E-01  8.67849E-01  8.12763E-01
   8.20719E-01  7.88149E-01  7.94551E-01  7.88139E-01  7.94741E-01  8.08254E-01  8.08625E-01  8.42059E-01  8.29957E-01  8.76965E-01
   8.51843E-01  9.10450E-01  8.74041E-01  9.40724E-01  8.94318E-01  9.64985E-01  9.13626E-01  9.86651E-01  9.46225E-01  1.06423E+00
   1.02933E+00  1.16443E+00  1.13562E+00  1.27946E+00  1.25752E+00  1.41048E+00  1.39891E+00  1.56267E+00  1.55970E+00  1.71822E+00
   1.71361E+00  1.86890E+00  1.85792E+00  1.99083E+00  1.97201E+00  2.08734E+00  2.04033E+00  2.11958E+00  2.04473E+00  2.07713E+00
   1.98014E+00  1.97190E+00  1.86034E+00  1.81826E+00  1.69741E+00  1.62258E+00  1.49961E+00  1.40439E+00  1.28491E+00  1.17522E+00
   1.05971E+00  9.31059E-01  8.25274E-01  6.94115E-01  6.02553E-01  4.70845E-01  4.06533E-01  3.12725E-01  2.94535E-01  2.92191E-01
   2.90918E-01  2.90065E-01  2.87744E-01  2.86074E-01  2.82188E-01  2.79537E-01  2.74207E-01  2.70787E-01  2.63810E-01  2.60053E-01
   2.52197E-01  2.48442E-01  2.40236E-01  2.35617E-01  2.27490E-01  2.22684E-01  2.16033E-01  2.11310E-01  2.06266E-01  2.01579E-01
   1.98718E-01  1.93852E-01  1.94227E-01  1.89386E-01  1.92333E-01  1.79670E-01  1.69443E-01  1.51624E-01  1.03771E-01  9.00960E-02
   8.72411E-03  1.04353E-02 -8.77446E-02 -2.66693E-02 -1.20640E-01  1.62474E-03 -1.04172E-01  9.31175E-02 -5.81766E-02  1.86010E-01
  -5.03789E-02  1.81626E-01 -2.02364E-01  1.24472E-01 -3.43583E-01  1.18198E-01 -4.04844E-01  1.81833E-01 -3.77687E-01  2.94386E-01
  -3.48403E-01  3.88264E-01 -3.39119E-01  4.17675E-01 -4.05344E-01  3.98385E-01 -4.24371E-01  4.28616E-01 -3.55932E-01  5.28877E-01
  -1.83680E-01  6.99706E-01  6.14175E-02  8.77180E-01  3.03165E-01  1.01466E+00  4.69287E-01  1.04736E+00  5.00246E-01  9.99565E-01
   5.13234E-01  1.00725E+00  6.48782E-01  1.21068E+00  9.47369E-01  1.45298E+00  1.20433E+00  1.65215E+00  1.36576E+00  1.65443E+00
   1.25340E+00  1.39974E+00  8.71544E-01  1.08956E+00  6.03914E-01  8.79592E-01  4.61047E-01  7.71749E-01  4.47232E-01  7.20291E-01
   4.20219E-01  6.26651E-01  3.84682E-01  5.20553E-01  3.30241E-01  4.16830E-01  3.32793E-01  4.22516E-01  4.26157E-01  5.25027E-01
   6.18808E-01  7.06990E-01  8.46990E-01  9.07177E-01  1.07449E+00  1.09085E+00  1.25087E+00  1.21063E+00  1.31094E+00  1.32860E+00
   1.44143E+00  1.53889E+00  1.63631E+00  1.78136E+00  1.77300E+00  1.85394E+00  1.77784E+00  1.80878E+00  1.67144E+00  1.67252E+00
   1.52282E+00  1.50968E+00  1.37762E+00  1.37982E+00  1.26271E+00  1.27494E+00  1.17603E+00  1.18635E+00  1.08012E+00  1.07980E+00
   9.87063E-01  9.82264E-01  9.60199E-01  9.69027E-01  9.63696E-01  9.68773E-01  9.78391E-01  9.78439E-01  9.89218E-01  9.91175E-01
   1.00311E+00  1.00489E+00  1.01627E+00  1.01948E+00  1.03145E+00  1.04164E+00  1.06121E+00  1.08044E+00  1.10749E+00  1.13654E+00
   1.17225E+00  1.21292E+00  1.26065E+00  1.31692E+00  1.38561E+00  1.47016E+00  1.57894E+00  1.72644E+00  1.95072E+00  2.23672E+00
   2.33121E+00  2.62962E+00  2.53891E+00  2.82413E+00  2.53736E+00  2.79191E+00  2.30195E+00  2.78146E+00  2.16151E+00  2.80820E+00
   2.05295E+00  2.81554E+00  1.83518E+00  2.63697E+00  1.48740E+00  2.37324E+00  1.14458E+00  2.08534E+00  8.34972E-01  1.86324E+00
   7.20100E-01  1.76826E+00  7.54976E-01  1.76681E+00  8.93701E-01  1.81926E+00  1.12176E+00  1.90577E+00  1.35551E+00  1.97113E+00
   1.55057E+00  1.98627E+00  1.74849E+00  2.01786E+00  1.93229E+00  2.07028E+00  2.20964E+00  2.32057E+00  2.64144E+00  2.70045E+00
   2.76395E+00  2.58262E+00  2.49576E+00  2.11152E+00  1.88552E+00  1.42859E+00  1.15761E+00  9.91302E-01  8.73263E-01  7.83263E-01
   7.11695E-01  6.53131E-01  6.04200E-01  5.62644E-01  5.26885E-01  4.95760E-01  4.68405E-01  4.44154E-01  4.22500E-01  4.03037E-01
   3.85441E-01  3.69442E-01  3.54819E-01  3.41389E-01  3.29002E-01  3.17533E-01  3.06875E-01  2.96933E-01  2.87625E-01  2.78883E-01
   2.70649E-01  2.62872E-01  2.55510E-01  2.48518E-01  2.41861E-01  2.35507E-01  2.29433E-01  2.23614E-01  2.18028E-01  2.12653E-01
   2.07472E-01  2.02469E-01  1.97633E-01  1.92950E-01  1.88408E-01  1.83995E-01  1.79701E-01  1.75519E-01  1.71442E-01  1.67462E-01
   1.63572E-01  1.59764E-01  1.56034E-01  1.52376E-01  1.48788E-01  1.45265E-01  1.41801E-01  1.38392E-01  1.35036E-01  1.31730E-01
   1.28473E-01  1.25260E-01  1.22089E-01  1.18956E-01  1.15862E-01  1.12804E-01  1.09782E-01  1.06791E-01  1.03831E-01  1.00899E-01
   9.79959E-02  9.51204E-02  9.22715E-02  8.94455E-02  8.66424E-02  8.38609E-02  8.11021E-02  7.83643E-02  7.56465E-02  7.29466E-02
   7.02641E-02  6.75997E-02  6.49525E-02  6.23233E-02  5.97080E-02  5.71088E-02  5.45223E-02  5.19529E-02  4.93957E-02  4.68552E-02
   4.43238E-02  4.18080E-02  3.93001E-02  3.68104E-02  3.43271E-02  3.18619E-02  2.94008E-02  2.69573E-02  2.45188E-02  2.20992E-02
   1.96843E-02  1.72866E-02  1.48922E-02  1.25152E-02  1.01433E-02  7.78985E-03  5.44136E-03  3.10932E-03  7.82492E-04 -1.52706E-03
  -3.82881E-03 -6.11321E-03 -8.38986E-03 -1.06509E-02 -1.29027E-02 -1.51369E-02 -1.73592E-02 -1.95641E-02 -2.17566E-02 -2.39322E-02
  -2.60933E-02 -2.82347E-02 -3.03591E-02 -3.24636E-02 -3.45505E-02 -3.66161E-02 -3.86601E-02 -4.06787E-02 -4.26726E-02 -4.46396E-02
  -4.65796E-02 -4.84884E-02 -5.03642E-02 -5.22016E-02 -5.40014E-02 -5.57575E-02 -5.74683E-02 -5.91252E-02 -6.07239E-02 -6.22556E-02
  -6.37159E-02 -6.50936E-02 -6.63788E-02 -6.75533E-02 -6.86011E-02 -6.94982E-02 -7.02185E-02 -7.07210E-02
 NY background values follow
     1.044E+00    1.041E+00    1.039E+00    1.037E+00    1.035E+00    1.032E+00    1.030E+00    1.028E+00    1.025E+00    1.023E+00
     1.021E+00    1.019E+00    1.016E+00    1.014E+00    1.012E+00    1.010E+00    1.007E+00    1.005E+00    1.003E+00    1.000E+00
     9.982E-01    9.959E-01    9.936E-01    9.913E-01    9.891E-01    9.868E-01    9.845E-01    9.822E-01    9.800E-01    9.777E-01
     9.754E-01    9.731E-01    9.709E-01    9.686E-01    9.663E-01    9.640E-01    9.618E-01    9.595E-01    9.572E-01    9.549E-01
     9.527E-01    9.504E-01    9.481E-01    9.458E-01    9.436E-01    9.413E-01    9.390E-01    9.367E-01    9.345E-01    9.322E-01
     9.299E-01    9.276E-01    9.254E-01    9.231E-01    9.208E-01    9.185E-01    9.163E-01    9.140E-01    9.117E-01    9.094E-01
     9.072E-01    9.049E-01    9.026E-01    9.003E-01    8.981E-01    8.958E-01    8.935E-01    8.912E-01    8.890E-01    8.867E-01
     8.844E-01    8.821E-01    8.799E-01    8.776E-01    8.753E-01    8.730E-01    8.708E-01    8.685E-01    8.662E-01    8.639E-01
     8.616E-01    8.594E-01    8.571E-01    8.548E-01    8.525E-01    8.503E-01    8.480E-01    8.457E-01    8.434E-01    8.412E-01
     8.389E-01    8.366E-01    8.343E-01    8.321E-01    8.298E-01    8.275E-01    8.252E-01    8.229E-01    8.207E-01    8.184E-01
     8.161E-01    8.138E-01    8.116E-01    8.093E-01    8.070E-01    8.047E-01    8.024E-01    8.002E-01    7.979E-01    7.956E-01
     7.933E-01    7.911E-01    7.888E-01    7.865E-01    7.842E-01    7.819E-01    7.797E-01    7.774E-01    7.751E-01    7.728E-01
     7.706E-01    7.683E-01    7.660E-01    7.637E-01    7.614E-01    7.592E-01    7.569E-01    7.546E-01    7.523E-01    7.501E-01
     7.478E-01    7.455E-01    7.432E-01    7.409E-01    7.387E-01    7.364E-01    7.341E-01    7.318E-01    7.295E-01    7.273E-01
     7.250E-01    7.227E-01    7.204E-01    7.181E-01    7.159E-01    7.136E-01    7.113E-01    7.090E-01    7.068E-01    7.045E-01
     7.022E-01    6.999E-01    6.976E-01    6.954E-01    6.931E-01    6.908E-01    6.885E-01    6.862E-01    6.840E-01    6.817E-01
     6.794E-01    6.771E-01    6.748E-01    6.726E-01    6.703E-01    6.680E-01    6.657E-01    6.634E-01    6.612E-01    6.589E-01
     6.566E-01    6.543E-01    6.520E-01    6.498E-01    6.475E-01    6.452E-01    6.429E-01    6.406E-01    6.383E-01    6.361E-01
     6.338E-01    6.315E-01    6.292E-01    6.269E-01    6.247E-01    6.224E-01    6.201E-01    6.178E-01    6.155E-01    6.133E-01
     6.110E-01    6.087E-01    6.064E-01    6.041E-01    6.019E-01    5.996E-01    5.973E-01    5.950E-01    5.927E-01    5.904E-01
     5.882E-01    5.859E-01    5.836E-01    5.813E-01    5.790E-01    5.768E-01    5.745E-01    5.722E-01    5.699E-01    5.676E-01
     5.653E-01    5.631E-01    5.608E-01    5.585E-01    5.562E-01    5.539E-01    5.517E-01    5.494E-01    5.471E-01    5.448E-01
     5.425E-01    5.402E-01    5.380E-01    5.357E-01    5.334E-01    5.311E-01    5.288E-01    5.265E-01    5.243E-01    5.220E-01
     5.197E-01    5.174E-01    5.151E-01    5.128E-01    5.106E-01    5.083E-01    5.060E-01    5.037E-01    5.014E-01    4.991E-01
     4.969E-01    4.946E-01    4.923E-01    4.900E-01    4.877E-01    4.854E-01    4.832E-01    4.809E-01    4.786E-01    4.763E-01
     4.740E-01    4.717E-01    4.695E-01    4.672E-01    4.649E-01    4.626E-01    4.603E-01    4.580E-01    4.558E-01    4.535E-01
     4.512E-01    4.489E-01    4.466E-01    4.443E-01    4.420E-01    4.398E-01    4.375E-01    4.352E-01    4.329E-01    4.306E-01
     4.283E-01    4.261E-01    4.238E-01    4.215E-01    4.192E-01    4.169E-01    4.146E-01    4.123E-01    4.101E-01    4.078E-01
     4.055E-01    4.032E-01    4.009E-01    3.986E-01    3.964E-01    3.941E-01    3.918E-01    3.895E-01    3.872E-01    3.849E-01
     3.826E-01    3.804E-01    3.781E-01    3.758E-01    3.735E-01    3.712E-01    3.689E-01    3.666E-01    3.644E-01    3.621E-01
     3.598E-01    3.575E-01    3.552E-01    3.529E-01    3.506E-01    3.484E-01    3.461E-01    3.438E-01    3.415E-01    3.392E-01
     3.369E-01    3.346E-01    3.324E-01    3.301E-01    3.278E-01    3.255E-01    3.232E-01    3.209E-01    3.186E-01    3.163E-01
     3.141E-01    3.118E-01    3.095E-01    3.072E-01    3.049E-01    3.026E-01    3.003E-01    2.981E-01    2.958E-01    2.935E-01
     2.912E-01    2.889E-01    2.866E-01    2.843E-01    2.820E-01    2.798E-01    2.775E-01    2.752E-01    2.729E-01    2.706E-01
     2.683E-01    2.660E-01    2.637E-01    2.615E-01    2.592E-01    2.569E-01    2.546E-01    2.523E-01    2.500E-01    2.477E-01
     2.454E-01    2.432E-01    2.409E-01    2.386E-01    2.363E-01    2.340E-01    2.317E-01    2.294E-01    2.271E-01    2.248E-01
     2.226E-01    2.203E-01    2.180E-01    2.157E-01    2.134E-01    2.111E-01    2.088E-01    2.065E-01    2.043E-01    2.020E-01
     1.997E-01    1.974E-01    1.951E-01    1.928E-01    1.905E-01    1.882E-01    1.859E-01    1.837E-01    1.814E-01    1.791E-01
     1.768E-01    1.745E-01    1.722E-01    1.699E-01    1.676E-01    1.653E-01    1.630E-01    1.608E-01    1.585E-01    1.562E-01
     1.539E-01    1.516E-01    1.493E-01    1.470E-01    1.447E-01    1.424E-01    1.402E-01    1.379E-01    1.356E-01    1.333E-01
     1.310E-01    1.287E-01    1.264E-01    1.241E-01    1.218E-01    1.195E-01    1.173E-01    1.150E-01    1.127E-01    1.104E-01
     1.081E-01    1.058E-01    1.035E-01    1.012E-01    9.893E-02    9.664E-02    9.435E-02    9.205E-02    8.976E-02    8.747E-02
     8.518E-02    8.289E-02    8.060E-02    7.831E-02    7.602E-02    7.373E-02    7.144E-02    6.915E-02    6.685E-02    6.456E-02
     6.227E-02    5.998E-02    5.769E-02    5.540E-02    5.311E-02    5.081E-02    4.852E-02    4.623E-02    4.394E-02    4.165E-02
     3.936E-02    3.707E-02    3.477E-02    3.248E-02    3.019E-02    2.790E-02    2.561E-02    2.331E-02    2.102E-02    1.873E-02
     1.644E-02    1.415E-02    1.185E-02    9.562E-03    7.269E-03    4.977E-03    2.685E-03    3.924E-04   -1.900E-03   -4.192E-03
    -6.485E-03   -8.777E-03   -1.107E-02   -1.336E-02   -1.566E-02   -1.795E-02   -2.024E-02   -2.253E-02   -2.483E-02   -2.712E-02
    -2.941E-02   -3.170E-02   -3.400E-02   -3.629E-02   -3.858E-02   -4.088E-02   -4.317E-02   -4.546E-02   -4.776E-02   -5.005E-02
    -5.234E-02   -5.464E-02   -5.693E-02   -5.922E-02   -6.152E-02   -6.381E-02   -6.610E-02   -6.840E-02   -7.069E-02   -7.298E-02
    -7.528E-02   -7.757E-02   -7.986E-02   -8.216E-02   -8.445E-02   -8.675E-02   -8.904E-02   -9.133E-02
 Ala      Conc. = 1.19E+03
