 LCModel (Version 6.3-1L) Copyright: S.W. Provencher.          Ref.: Magn. Reson. Med. 30:672-679 (1993).                
 Slice#2 Row#14 Col#9  K_02_press_1_raw_act
 36 lines in following concentration table = NCONC+1
    Conc.  %SD /Cr+PCr  Metabolite                                         
    0.000 999%   0.000 Ala                                                 
    7.502 117%   0.134 Asp                                                 
    0.000 999%   0.000 Cr                                                  
   55.951  28%   1.000 PCr                                                 
    4.191 126% 7.5E-02 GABA                                                
    4.200 126% 7.5E-02 Glc                                                 
    0.000 999%   0.000 Gln                                                 
  153.899  48%   2.751 Glu                                                 
    6.477  95%   0.116 GPC                                                 
    0.000 999%   0.000 PCh                                                 
   14.055 161%   0.251 GSH                                                 
  145.012  51%   2.592 Ins                                                 
    0.000 999%   0.000 Lac                                                 
   63.868  30%   1.141 NAA                                                 
    0.000 999%   0.000 NAAG                                                
    1.015 172% 1.8E-02 Scyllo                                              
    4.416 198% 7.9E-02 Tau                                                 
    0.000 999%   0.000 -CrCH2                                              
    6.477  95%   0.116 GPC+PCh                                             
   63.868  30%   1.141 NAA+NAAG                                            
   55.951  28%   1.000 Cr+PCr                                              
  153.899  48%   2.751 Glu+Gln                                             
  878.626  21%  15.703 Lip13a                                              
    0.000 999%   0.000 Lip13b                                              
  220.821  41%   3.947 Lip09                                               
  235.200  35%   4.204 MM09                                                
   91.345  67%   1.633 Lip20                                               
   78.570 151%   1.404 MM20                                                
   95.246  64%   1.702 MM12                                                
  751.827  13%  13.437 MM14                                                
  443.607  19%   7.928 MM17                                                
  878.626  21%  15.703 Lip13a+Lip13b                                       
 1.73E+03   8%  30.843 MM14+Lip13a+Lip13b+MM12                             
  456.020  15%   8.150 MM09+Lip09                                          
  169.914  67%   3.037 MM20+Lip20                                          
   6 lines in following misc. output table
  FWHM = 0.046 ppm    S/N =   2                                            
  Data shift =-0.008 ppm                                                   
  Ph: 159 deg      10.5 deg/ppm                                            
  alphaB,S = 1.2E+00,   3.9E+01                                            
   14 spline knots.   Ns = 5(1)                                            
  ( 8) 2 infls.   ( 7) 1 extrs.                                            
  498 points on ppm-axis = NY
      4.000000     3.992357     3.984714     3.977070     3.969427     3.961784     3.954141     3.946497     3.938854     3.931211
      3.923568     3.915925     3.908281     3.900638     3.892995     3.885352     3.877708     3.870065     3.862422     3.854779
      3.847136     3.839492     3.831849     3.824206     3.816563     3.808919     3.801276     3.793633     3.785990     3.778347
      3.770703     3.763060     3.755417     3.747774     3.740130     3.732487     3.724844     3.717201     3.709558     3.701914
      3.694271     3.686628     3.678985     3.671341     3.663698     3.656055     3.648412     3.640769     3.633125     3.625482
      3.617839     3.610196     3.602552     3.594909     3.587266     3.579623     3.571980     3.564336     3.556693     3.549050
      3.541407     3.533763     3.526120     3.518477     3.510834     3.503191     3.495547     3.487904     3.480261     3.472618
      3.464974     3.457331     3.449688     3.442045     3.434402     3.426758     3.419115     3.411472     3.403829     3.396185
      3.388542     3.380899     3.373256     3.365613     3.357969     3.350326     3.342683     3.335040     3.327396     3.319753
      3.312110     3.304467     3.296824     3.289180     3.281537     3.273894     3.266251     3.258607     3.250964     3.243321
      3.235678     3.228034     3.220391     3.212748     3.205105     3.197462     3.189818     3.182175     3.174532     3.166889
      3.159245     3.151602     3.143959     3.136316     3.128673     3.121029     3.113386     3.105743     3.098100     3.090456
      3.082813     3.075170     3.067527     3.059884     3.052240     3.044597     3.036954     3.029311     3.021667     3.014024
      3.006381     2.998738     2.991095     2.983451     2.975808     2.968165     2.960522     2.952878     2.945235     2.937592
      2.929949     2.922306     2.914662     2.907019     2.899376     2.891733     2.884089     2.876446     2.868803     2.861160
      2.853517     2.845873     2.838230     2.830587     2.822944     2.815300     2.807657     2.800014     2.792371     2.784728
      2.777084     2.769441     2.761798     2.754155     2.746511     2.738868     2.731225     2.723582     2.715939     2.708295
      2.700652     2.693009     2.685366     2.677722     2.670079     2.662436     2.654793     2.647150     2.639506     2.631863
      2.624220     2.616577     2.608933     2.601290     2.593647     2.586004     2.578361     2.570717     2.563074     2.555431
      2.547788     2.540144     2.532501     2.524858     2.517215     2.509572     2.501928     2.494285     2.486642     2.478999
      2.471355     2.463712     2.456069     2.448426     2.440783     2.433139     2.425496     2.417853     2.410210     2.402566
      2.394923     2.387280     2.379637     2.371994     2.364350     2.356707     2.349064     2.341421     2.333777     2.326134
      2.318491     2.310848     2.303205     2.295561     2.287918     2.280275     2.272632     2.264988     2.257345     2.249702
      2.242059     2.234416     2.226772     2.219129     2.211486     2.203843     2.196199     2.188556     2.180913     2.173270
      2.165627     2.157983     2.150340     2.142697     2.135054     2.127410     2.119767     2.112124     2.104481     2.096838
      2.089194     2.081551     2.073908     2.066265     2.058621     2.050978     2.043335     2.035692     2.028049     2.020405
      2.012762     2.005119     1.997476     1.989833     1.982190     1.974546     1.966903     1.959260     1.951617     1.943974
      1.936331     1.928688     1.921045     1.913402     1.905759     1.898115     1.890472     1.882829     1.875186     1.867543
      1.859900     1.852257     1.844614     1.836971     1.829327     1.821684     1.814041     1.806398     1.798755     1.791112
      1.783469     1.775826     1.768183     1.760540     1.752896     1.745253     1.737610     1.729967     1.722324     1.714681
      1.707038     1.699395     1.691752     1.684108     1.676465     1.668822     1.661179     1.653536     1.645893     1.638250
      1.630607     1.622964     1.615321     1.607677     1.600034     1.592391     1.584748     1.577105     1.569462     1.561819
      1.554176     1.546533     1.538890     1.531246     1.523603     1.515960     1.508317     1.500674     1.493031     1.485388
      1.477745     1.470102     1.462458     1.454815     1.447172     1.439529     1.431886     1.424243     1.416600     1.408957
      1.401314     1.393671     1.386027     1.378384     1.370741     1.363098     1.355455     1.347812     1.340169     1.332526
      1.324883     1.317240     1.309596     1.301953     1.294310     1.286667     1.279024     1.271381     1.263738     1.256095
      1.248452     1.240808     1.233165     1.225522     1.217879     1.210236     1.202593     1.194950     1.187307     1.179664
      1.172021     1.164377     1.156734     1.149091     1.141448     1.133805     1.126162     1.118519     1.110876     1.103233
      1.095590     1.087946     1.080303     1.072660     1.065017     1.057374     1.049731     1.042088     1.034445     1.026802
      1.019158     1.011515     1.003872     0.996229     0.988586     0.980943     0.973300     0.965657     0.958014     0.950371
      0.942727     0.935084     0.927441     0.919798     0.912155     0.904512     0.896869     0.889226     0.881583     0.873940
      0.866296     0.858653     0.851010     0.843367     0.835724     0.828081     0.820438     0.812795     0.805152     0.797508
      0.789865     0.782222     0.774579     0.766936     0.759293     0.751650     0.744007     0.736364     0.728721     0.721077
      0.713434     0.705791     0.698148     0.690505     0.682862     0.675219     0.667576     0.659933     0.652290     0.644646
      0.637003     0.629360     0.621717     0.614074     0.606431     0.598788     0.591145     0.583502     0.575858     0.568215
      0.560572     0.552929     0.545286     0.537643     0.530000     0.522357     0.514714     0.507071     0.499427     0.491784
      0.484141     0.476498     0.468855     0.461212     0.453569     0.445925     0.438282     0.430639     0.422996     0.415353
      0.407710     0.400067     0.392424     0.384780     0.377137     0.369494     0.361851     0.354208     0.346565     0.338922
      0.331278     0.323635     0.315992     0.308349     0.300706     0.293063     0.285420     0.277777     0.270133     0.262490
      0.254847     0.247204     0.239561     0.231918     0.224275     0.216631     0.208988     0.201345
 NY phased data points follow
   1.03445E+01  9.91307E+00  8.09914E+00  7.56796E+00  1.00198E+01  9.98524E+00  1.10337E+01  1.01357E+01  9.96113E+00  1.00448E+01
   9.24502E+00  7.18105E+00  9.06890E+00  1.07316E+01  7.83283E+00  8.52642E+00  8.82610E+00  9.26184E+00  1.07251E+01  8.01809E+00
   7.96445E+00  8.36429E+00  7.43667E+00  8.50139E+00  8.27083E+00  6.21873E+00  7.94133E+00  8.47807E+00  6.50337E+00  8.45330E+00
   6.03211E+00  7.63724E+00  6.70612E+00  8.58361E+00  6.31476E+00  6.72481E+00  7.76603E+00  6.38897E+00  9.87801E+00  8.25484E+00
   6.56211E+00  6.48675E+00  7.47955E+00  6.85516E+00  5.27976E+00  6.17893E+00  6.46454E+00  7.66457E+00  6.67312E+00  6.70412E+00
   6.22162E+00  6.86956E+00  7.02826E+00  5.83164E+00  5.85727E+00  6.94078E+00  3.96874E+00  4.81559E+00  7.52362E+00  5.24511E+00
   5.08967E+00  6.01288E+00  5.10321E+00  4.15972E+00  6.34918E+00  6.69294E+00  4.72148E+00  6.95046E+00  4.95406E+00  6.76400E+00
   5.22899E+00  4.35231E+00  6.70058E+00  6.56640E+00  4.93956E+00  6.22254E+00  5.98245E+00  4.76158E+00  4.68933E+00  5.24266E+00
   6.41441E+00  4.79333E+00  6.16999E+00  3.62436E+00  4.76180E+00  6.10672E+00  3.45378E+00  4.66280E+00  5.30838E+00  4.21650E+00
   3.59662E+00  3.39182E+00  1.51056E+00  5.50419E+00  5.71839E+00  5.33482E+00  4.97714E+00  5.42614E+00  5.06783E+00  3.42080E+00
   1.07868E+00  7.08699E+00  3.01249E+00  6.70544E+00  4.61290E+00  5.54838E+00  4.70154E+00  5.59096E+00  4.33554E+00  4.47731E+00
   4.41633E+00  3.96538E+00  3.87037E+00  5.56770E+00  5.27900E+00  4.44333E+00  5.12248E+00  1.98821E+00  4.47591E+00  2.41061E+00
   4.57518E+00  6.63976E+00  4.77407E+00  3.78613E+00  3.69017E+00  2.92434E+00  5.09973E+00  7.03795E+00  6.81882E+00  5.34004E+00
   4.82977E+00  3.81619E+00  4.31838E+00  2.75105E+00  3.11491E+00  3.69713E+00  3.55096E+00  3.21578E+00  5.47706E+00  2.42106E+00
   5.26947E+00  3.35231E+00  3.87518E+00  2.87053E+00  2.55595E+00  2.29830E+00  5.06446E+00  3.94155E+00  2.08335E+00  1.70200E+00
   2.87631E+00  3.53096E+00  1.52148E+00  4.04517E+00  1.02626E+00  4.26234E+00  2.83760E+00  4.70950E+00  3.17639E+00  3.01654E+00
   4.37775E+00  2.60709E+00  3.49805E+00  3.51947E+00  3.83934E+00  3.64955E+00  4.06713E+00  4.49183E+00  3.21633E+00  1.89636E+00
   4.49610E+00  1.38647E+00  2.23108E+00  4.30578E+00  4.81172E+00  2.28547E+00  3.34711E+00  1.91983E+00  2.01144E+00  3.74917E+00
   4.28783E+00  3.67519E+00  3.10705E+00  2.04013E+00  3.29201E+00  3.97218E+00  2.80547E+00  8.43548E-01  2.26681E+00  2.87083E+00
   9.63065E-01  3.14673E+00  2.71950E+00  2.03170E+00  1.37453E+00  3.71869E+00  3.01648E+00  1.31111E+00  3.17964E+00  2.73258E+00
   3.52757E+00  3.99072E+00  3.14808E+00  2.81862E+00  2.24151E+00  3.84890E+00  3.74382E+00  4.78377E+00  1.98498E+00  1.57113E+00
   4.49604E+00  3.92106E+00  3.41033E+00  3.84390E+00  3.81449E+00  5.09825E+00  3.18867E+00  3.82032E+00  1.92639E+00  2.80879E+00
   2.69594E+00  2.10814E+00  3.65376E+00  9.23693E-01  2.77703E+00  2.83290E+00  3.13480E+00  2.53296E+00  4.66610E+00  4.03333E+00
   4.08177E+00  1.86118E+00  6.53895E-01  1.76678E+00  3.64243E+00  2.31114E+00  6.26398E+00  2.36070E+00  5.32983E+00  2.98114E+00
   8.39163E-01  1.60436E+00  3.19470E+00  4.78844E+00  1.62045E+00  2.82732E+00  2.67418E+00  2.66302E+00  4.42382E+00  4.20658E+00
   3.53146E+00  4.38794E+00  2.98699E+00  3.07543E+00  1.01607E+00  4.37660E+00  2.97252E+00  2.37301E+00  2.42850E+00  3.63352E+00
   7.84016E+00  6.42879E+00  7.38668E+00  4.13679E+00  2.38373E+00  4.44962E+00  1.85289E+00  2.46598E+00  6.00942E+00  4.72169E+00
   3.33087E+00  2.47893E+00  4.21552E+00  5.30989E+00  3.33538E+00  3.97722E+00  2.99321E+00  2.76745E+00  2.76760E+00  2.12568E+00
   4.53783E+00  1.96216E+00  5.54075E+00  3.03588E+00  2.24150E+00  3.84951E+00  4.13819E+00  4.93630E+00  4.83124E+00  5.57226E+00
   4.03614E+00  4.73504E+00  4.63157E+00  3.86583E+00  5.05885E+00  3.72626E+00  2.46383E+00  5.12466E+00  6.92574E+00  5.35432E+00
   5.25286E+00  4.98769E+00  5.57798E+00  6.78507E+00  7.33563E+00  7.32279E+00  6.21197E+00  6.35220E+00  6.26794E+00  1.73075E+00
   1.55431E+00  3.98851E+00  2.90316E+00  3.48362E+00  4.90619E+00  2.20342E+00  7.93242E+00  5.08351E+00  3.89596E+00  6.21298E+00
   5.91462E+00  9.01870E+00  6.79566E+00  6.35358E+00  9.58704E+00  7.35360E+00  8.95049E+00  9.14135E+00  8.63836E+00  7.03945E+00
   7.47661E+00  1.12843E+01  9.80289E+00  9.37224E+00  8.51706E+00  8.36912E+00  6.51797E+00  8.34678E+00  7.59324E+00  6.39663E+00
   4.57515E+00  5.21347E+00  4.22033E+00  4.47276E+00  5.96265E+00  5.21170E+00  6.52670E+00  6.99049E+00  5.58896E+00  5.16918E+00
   6.39213E+00  4.41201E+00  6.25241E+00  4.05681E+00  6.52856E+00  4.10286E+00  6.61980E+00  6.84025E+00  3.60420E+00  5.32541E+00
   4.68463E+00  3.55540E+00  3.34755E+00  3.71154E+00  3.23189E+00  5.84231E+00  4.85954E+00  7.21376E+00  4.85582E+00  6.10695E+00
   4.37104E+00  6.08334E+00  4.08620E+00  2.85918E+00  3.62666E+00  2.84876E+00  4.87929E+00  2.27648E+00  3.17667E+00  3.63685E+00
   2.14138E+00  3.08791E+00  5.18078E+00  6.67339E+00  4.12761E+00  2.31065E+00  5.26466E+00  4.29021E+00  2.30194E+00  6.46389E+00
   3.08452E+00  2.56345E+00  3.70585E+00  4.51303E+00  3.80174E+00  5.79095E+00  5.32933E+00  4.13701E+00  2.61089E+00  5.11050E+00
   4.37855E+00  2.45136E+00  2.83416E+00  2.98828E+00  2.97086E+00  2.30395E+00  4.00058E+00  2.02456E+00  5.14875E+00  4.29452E+00
   3.25643E+00  2.43966E+00  4.72091E+00  3.05443E+00  4.47261E+00  1.91238E+00  1.92204E+00  3.59664E+00  3.53929E+00  2.08433E-01
   3.05555E+00  2.11851E+00  2.98485E+00  3.21694E+00 -5.50762E-01  3.01812E+00  2.97259E+00  2.98749E+00  3.11132E+00  3.08845E+00
   9.27232E-01  2.30025E+00 -3.36391E-01  1.56552E+00  3.48492E+00  1.67124E+00  2.51967E+00  3.10685E+00  2.10965E+00  1.19184E+00
   2.36110E+00  1.67244E+00  4.26270E-01 -7.80672E-01  6.38250E-02  1.81648E+00  7.75688E-01  7.60279E-01 -4.56237E-02  1.04765E+00
   6.34582E-01  6.17230E-01  2.91885E+00  3.38684E+00  3.49803E-01  1.23796E+00 -3.97926E-01 -2.42182E-02 -3.28209E-02  3.19171E-01
   2.72857E-02 -7.87185E-02 -4.15096E-02  1.38808E-01  1.67203E+00  1.06371E+00  1.01687E+00  5.89928E-01  7.83075E-01  1.18885E+00
  -5.04112E-01  1.35282E+00  2.08007E+00 -2.08390E-01  5.22863E-02 -8.30753E-01  6.95635E-01  1.02421E+00 -6.07932E-01  7.68260E-01
   3.88422E-01  9.93378E-01 -3.77967E-01  1.74032E+00 -4.00639E-01  7.61078E-01  1.49482E+00  1.92614E+00  1.31927E+00  2.75964E+00
   2.08041E+00  4.30819E-01  1.10958E+00  1.86059E+00 -2.43012E-01  2.28051E+00  1.48398E+00  5.29325E-02
 NY points of the fit to the data follow
   7.91962E+00  7.80380E+00  7.71764E+00  7.69214E+00  7.76267E+00  7.91243E+00  8.12685E+00  8.38960E+00  8.64208E+00  8.79178E+00
   8.76916E+00  8.57396E+00  8.26713E+00  7.92176E+00  7.60050E+00  7.36949E+00  7.26586E+00  7.22190E+00  7.19166E+00  7.16898E+00
   7.15499E+00  7.15248E+00  7.15382E+00  7.14396E+00  7.12141E+00  7.09091E+00  7.04859E+00  7.00925E+00  7.00836E+00  7.07156E+00
   7.18457E+00  7.30887E+00  7.40860E+00  7.44829E+00  7.38690E+00  7.22007E+00  7.00051E+00  6.79017E+00  6.61764E+00  6.50174E+00
   6.44987E+00  6.45336E+00  6.50245E+00  6.60704E+00  6.76994E+00  6.97769E+00  7.20512E+00  7.40092E+00  7.48138E+00  7.38779E+00
   7.12940E+00  6.77437E+00  6.40794E+00  6.10446E+00  5.93006E+00  5.90627E+00  5.97936E+00  6.08975E+00  6.20639E+00  6.31184E+00
   6.38112E+00  6.38778E+00  6.32256E+00  6.20025E+00  6.04974E+00  5.90486E+00  5.80299E+00  5.76930E+00  5.79260E+00  5.84873E+00
   5.90974E+00  5.95697E+00  5.97717E+00  5.96291E+00  5.91816E+00  5.85314E+00  5.77803E+00  5.70025E+00  5.62664E+00  5.56861E+00
   5.52330E+00  5.48462E+00  5.44335E+00  5.39026E+00  5.31652E+00  5.21783E+00  5.09555E+00  4.96236E+00  4.84371E+00  4.76832E+00
   4.75066E+00  4.78829E+00  4.86671E+00  4.95809E+00  5.02853E+00  5.05687E+00  5.03900E+00  4.99150E+00  4.95130E+00  4.93770E+00
   4.96375E+00  5.03827E+00  5.13864E+00  5.21904E+00  5.23531E+00  5.16976E+00  5.04370E+00  4.89026E+00  4.74058E+00  4.62815E+00
   4.57613E+00  4.55504E+00  4.53934E+00  4.52594E+00  4.51183E+00  4.49582E+00  4.47761E+00  4.45841E+00  4.44005E+00  4.42669E+00
   4.42859E+00  4.48579E+00  4.66205E+00  4.94298E+00  5.31713E+00  5.75405E+00  6.15388E+00  6.37484E+00  6.32704E+00  6.02925E+00
   5.57926E+00  5.08423E+00  4.63595E+00  4.32880E+00  4.19281E+00  4.11753E+00  4.05559E+00  4.01017E+00  3.98628E+00  3.98480E+00
   4.00125E+00  4.02396E+00  4.03773E+00  4.03636E+00  4.02075E+00  3.99458E+00  3.96402E+00  3.93363E+00  3.90545E+00  3.88004E+00
   3.85533E+00  3.83155E+00  3.80949E+00  3.78964E+00  3.77140E+00  3.75353E+00  3.73354E+00  3.70958E+00  3.68096E+00  3.64823E+00
   3.61565E+00  3.58751E+00  3.56805E+00  3.55882E+00  3.55511E+00  3.54926E+00  3.53554E+00  3.51155E+00  3.47815E+00  3.44099E+00
   3.40490E+00  3.37089E+00  3.33923E+00  3.30838E+00  3.27728E+00  3.24819E+00  3.22363E+00  3.20632E+00  3.19541E+00  3.18591E+00
   3.17360E+00  3.15836E+00  3.14074E+00  3.12176E+00  3.10555E+00  3.09762E+00  3.10057E+00  3.11647E+00  3.14344E+00  3.17794E+00
   3.21257E+00  3.23710E+00  3.24361E+00  3.22766E+00  3.19467E+00  3.15662E+00  3.12276E+00  3.09732E+00  3.08507E+00  3.08956E+00
   3.10876E+00  3.13959E+00  3.17376E+00  3.20590E+00  3.22144E+00  3.20016E+00  3.14091E+00  3.05078E+00  2.94397E+00  2.84977E+00
   2.80957E+00  2.86944E+00  3.02310E+00  3.24619E+00  3.48886E+00  3.67738E+00  3.71652E+00  3.54260E+00  3.18360E+00  2.72923E+00
   2.27738E+00  1.93080E+00  1.79509E+00  1.91561E+00  2.21579E+00  2.59530E+00  2.95918E+00  3.23731E+00  3.38517E+00  3.39100E+00
   3.30917E+00  3.21887E+00  3.16007E+00  3.14030E+00  3.15711E+00  3.19000E+00  3.21699E+00  3.21426E+00  3.16256E+00  3.07500E+00
   2.98328E+00  2.91665E+00  2.89908E+00  2.94506E+00  3.04437E+00  3.16235E+00  3.25702E+00  3.30051E+00  3.29053E+00  3.23624E+00
   3.16300E+00  3.11285E+00  3.10919E+00  3.14404E+00  3.21454E+00  3.36891E+00  3.64003E+00  3.99499E+00  4.43840E+00  4.94012E+00
   5.37100E+00  5.56453E+00  5.43841E+00  5.03646E+00  4.47545E+00  3.87177E+00  3.35167E+00  3.03853E+00  2.91699E+00  2.85640E+00
   2.82321E+00  2.81522E+00  2.82575E+00  2.85269E+00  2.89223E+00  2.93399E+00  2.97080E+00  3.00077E+00  3.02507E+00  3.04882E+00
   3.08151E+00  3.13036E+00  3.19729E+00  3.28227E+00  3.38444E+00  3.50198E+00  3.63223E+00  3.77208E+00  3.91958E+00  4.07341E+00
   4.23116E+00  4.38974E+00  4.54583E+00  4.69575E+00  4.83536E+00  4.96043E+00  5.06733E+00  5.15301E+00  5.21493E+00  5.25159E+00
   5.26267E+00  5.24897E+00  5.21251E+00  5.15648E+00  5.08508E+00  5.00349E+00  4.91765E+00  4.83406E+00  4.75941E+00  4.70039E+00
   4.66338E+00  4.65407E+00  4.67725E+00  4.73669E+00  4.83491E+00  4.97301E+00  5.15059E+00  5.36565E+00  5.61462E+00  5.89237E+00
   6.19234E+00  6.50678E+00  6.82693E+00  7.14340E+00  7.44651E+00  7.72671E+00  7.97502E+00  8.18342E+00  8.34529E+00  8.45567E+00
   8.51157E+00  8.51209E+00  8.45844E+00  8.35389E+00  8.20353E+00  8.01404E+00  7.79325E+00  7.54978E+00  7.29253E+00  7.03031E+00
   6.77138E+00  6.52311E+00  6.29170E+00  6.08200E+00  5.89741E+00  5.73981E+00  5.60968E+00  5.50621E+00  5.42746E+00  5.37058E+00
   5.33208E+00  5.30800E+00  5.29420E+00  5.28654E+00  5.28105E+00  5.27412E+00  5.26258E+00  5.24380E+00  5.21573E+00  5.17692E+00
   5.12651E+00  5.06423E+00  4.99029E+00  4.90537E+00  4.81054E+00  4.70718E+00  4.59690E+00  4.48148E+00  4.36279E+00  4.24272E+00
   4.12317E+00  4.00595E+00  3.89276E+00  3.78520E+00  3.68472E+00  3.59258E+00  3.50993E+00  3.43774E+00  3.37681E+00  3.32781E+00
   3.29124E+00  3.26746E+00  3.25666E+00  3.25887E+00  3.27395E+00  3.30155E+00  3.34109E+00  3.39178E+00  3.45256E+00  3.52212E+00
   3.59886E+00  3.68093E+00  3.76625E+00  3.85251E+00  3.93729E+00  4.01804E+00  4.09223E+00  4.15740E+00  4.21126E+00  4.25177E+00
   4.27724E+00  4.28635E+00  4.27827E+00  4.25263E+00  4.20955E+00  4.14963E+00  4.07389E+00  3.98373E+00  3.88085E+00  3.76719E+00
   3.64481E+00  3.51585E+00  3.38240E+00  3.24650E+00  3.11001E+00  2.97463E+00  2.84181E+00  2.71281E+00  2.58862E+00  2.46999E+00
   2.35749E+00  2.25147E+00  2.15209E+00  2.05938E+00  1.97325E+00  1.89350E+00  1.81986E+00  1.75202E+00  1.68960E+00  1.63224E+00
   1.57955E+00  1.53116E+00  1.48668E+00  1.44577E+00  1.40810E+00  1.37336E+00  1.34125E+00  1.31153E+00  1.28394E+00  1.25828E+00
   1.23436E+00  1.21199E+00  1.19102E+00  1.17132E+00  1.15275E+00  1.13522E+00  1.11862E+00  1.10285E+00  1.08785E+00  1.07355E+00
   1.05987E+00  1.04678E+00  1.03421E+00  1.02212E+00  1.01047E+00  9.99234E-01  9.88369E-01  9.77848E-01  9.67645E-01  9.57734E-01
   9.48095E-01  9.38707E-01  9.29554E-01  9.20618E-01  9.11884E-01  9.03339E-01  8.94969E-01  8.86765E-01  8.78714E-01  8.70808E-01
   8.63036E-01  8.55391E-01  8.47866E-01  8.40455E-01  8.33150E-01  8.25945E-01  8.18834E-01  8.11812E-01  8.04876E-01  7.98019E-01
   7.91238E-01  7.84528E-01  7.77886E-01  7.71310E-01  7.64797E-01  7.58343E-01  7.51945E-01  7.45601E-01  7.39309E-01  7.33068E-01
   7.26876E-01  7.20729E-01  7.14628E-01  7.08570E-01  7.02556E-01  6.96584E-01  6.90653E-01  6.84764E-01
 NY background values follow
     7.487E+00    7.457E+00    7.428E+00    7.398E+00    7.369E+00    7.340E+00    7.310E+00    7.281E+00    7.251E+00    7.222E+00
     7.192E+00    7.163E+00    7.134E+00    7.104E+00    7.075E+00    7.045E+00    7.016E+00    6.987E+00    6.957E+00    6.928E+00
     6.899E+00    6.869E+00    6.840E+00    6.811E+00    6.781E+00    6.752E+00    6.723E+00    6.694E+00    6.665E+00    6.635E+00
     6.606E+00    6.577E+00    6.548E+00    6.519E+00    6.490E+00    6.461E+00    6.432E+00    6.403E+00    6.374E+00    6.346E+00
     6.317E+00    6.288E+00    6.259E+00    6.231E+00    6.202E+00    6.173E+00    6.145E+00    6.116E+00    6.088E+00    6.059E+00
     6.031E+00    6.003E+00    5.974E+00    5.946E+00    5.918E+00    5.890E+00    5.862E+00    5.834E+00    5.806E+00    5.778E+00
     5.750E+00    5.722E+00    5.695E+00    5.667E+00    5.640E+00    5.612E+00    5.585E+00    5.557E+00    5.530E+00    5.503E+00
     5.476E+00    5.449E+00    5.422E+00    5.395E+00    5.368E+00    5.341E+00    5.314E+00    5.288E+00    5.261E+00    5.235E+00
     5.209E+00    5.182E+00    5.156E+00    5.130E+00    5.104E+00    5.078E+00    5.052E+00    5.027E+00    5.001E+00    4.976E+00
     4.950E+00    4.925E+00    4.900E+00    4.875E+00    4.850E+00    4.825E+00    4.800E+00    4.775E+00    4.751E+00    4.726E+00
     4.702E+00    4.677E+00    4.653E+00    4.629E+00    4.605E+00    4.581E+00    4.558E+00    4.534E+00    4.510E+00    4.487E+00
     4.464E+00    4.440E+00    4.417E+00    4.394E+00    4.371E+00    4.349E+00    4.326E+00    4.303E+00    4.281E+00    4.259E+00
     4.237E+00    4.214E+00    4.192E+00    4.171E+00    4.149E+00    4.127E+00    4.106E+00    4.084E+00    4.063E+00    4.042E+00
     4.021E+00    4.000E+00    3.979E+00    3.959E+00    3.938E+00    3.918E+00    3.897E+00    3.877E+00    3.857E+00    3.837E+00
     3.817E+00    3.798E+00    3.778E+00    3.759E+00    3.739E+00    3.720E+00    3.701E+00    3.682E+00    3.663E+00    3.645E+00
     3.626E+00    3.608E+00    3.589E+00    3.571E+00    3.553E+00    3.535E+00    3.517E+00    3.499E+00    3.482E+00    3.464E+00
     3.447E+00    3.429E+00    3.412E+00    3.395E+00    3.378E+00    3.361E+00    3.345E+00    3.328E+00    3.312E+00    3.295E+00
     3.279E+00    3.263E+00    3.247E+00    3.231E+00    3.215E+00    3.199E+00    3.184E+00    3.168E+00    3.153E+00    3.138E+00
     3.122E+00    3.107E+00    3.092E+00    3.078E+00    3.063E+00    3.048E+00    3.034E+00    3.019E+00    3.005E+00    2.991E+00
     2.977E+00    2.963E+00    2.949E+00    2.935E+00    2.921E+00    2.908E+00    2.894E+00    2.881E+00    2.867E+00    2.854E+00
     2.841E+00    2.828E+00    2.815E+00    2.802E+00    2.790E+00    2.777E+00    2.764E+00    2.752E+00    2.740E+00    2.727E+00
     2.715E+00    2.703E+00    2.691E+00    2.679E+00    2.667E+00    2.655E+00    2.644E+00    2.632E+00    2.621E+00    2.609E+00
     2.598E+00    2.586E+00    2.575E+00    2.564E+00    2.553E+00    2.542E+00    2.531E+00    2.520E+00    2.510E+00    2.499E+00
     2.488E+00    2.478E+00    2.467E+00    2.457E+00    2.446E+00    2.436E+00    2.426E+00    2.416E+00    2.406E+00    2.396E+00
     2.386E+00    2.376E+00    2.366E+00    2.356E+00    2.347E+00    2.337E+00    2.328E+00    2.318E+00    2.309E+00    2.299E+00
     2.290E+00    2.281E+00    2.271E+00    2.262E+00    2.253E+00    2.244E+00    2.235E+00    2.226E+00    2.217E+00    2.209E+00
     2.200E+00    2.191E+00    2.182E+00    2.174E+00    2.165E+00    2.156E+00    2.148E+00    2.140E+00    2.131E+00    2.123E+00
     2.114E+00    2.106E+00    2.098E+00    2.090E+00    2.081E+00    2.073E+00    2.065E+00    2.057E+00    2.049E+00    2.041E+00
     2.033E+00    2.025E+00    2.018E+00    2.010E+00    2.002E+00    1.994E+00    1.987E+00    1.979E+00    1.971E+00    1.964E+00
     1.956E+00    1.949E+00    1.941E+00    1.934E+00    1.926E+00    1.919E+00    1.911E+00    1.904E+00    1.897E+00    1.889E+00
     1.882E+00    1.875E+00    1.868E+00    1.861E+00    1.853E+00    1.846E+00    1.839E+00    1.832E+00    1.825E+00    1.818E+00
     1.811E+00    1.804E+00    1.797E+00    1.791E+00    1.784E+00    1.777E+00    1.770E+00    1.763E+00    1.756E+00    1.750E+00
     1.743E+00    1.736E+00    1.730E+00    1.723E+00    1.716E+00    1.710E+00    1.703E+00    1.697E+00    1.690E+00    1.684E+00
     1.677E+00    1.671E+00    1.664E+00    1.658E+00    1.651E+00    1.645E+00    1.638E+00    1.632E+00    1.626E+00    1.619E+00
     1.613E+00    1.607E+00    1.600E+00    1.594E+00    1.588E+00    1.582E+00    1.575E+00    1.569E+00    1.563E+00    1.557E+00
     1.551E+00    1.545E+00    1.538E+00    1.532E+00    1.526E+00    1.520E+00    1.514E+00    1.508E+00    1.502E+00    1.496E+00
     1.490E+00    1.484E+00    1.478E+00    1.472E+00    1.466E+00    1.460E+00    1.454E+00    1.448E+00    1.442E+00    1.436E+00
     1.430E+00    1.424E+00    1.418E+00    1.412E+00    1.406E+00    1.400E+00    1.394E+00    1.389E+00    1.383E+00    1.377E+00
     1.371E+00    1.365E+00    1.359E+00    1.354E+00    1.348E+00    1.342E+00    1.336E+00    1.330E+00    1.324E+00    1.319E+00
     1.313E+00    1.307E+00    1.301E+00    1.296E+00    1.290E+00    1.284E+00    1.278E+00    1.272E+00    1.267E+00    1.261E+00
     1.255E+00    1.250E+00    1.244E+00    1.238E+00    1.232E+00    1.227E+00    1.221E+00    1.215E+00    1.210E+00    1.204E+00
     1.198E+00    1.192E+00    1.187E+00    1.181E+00    1.175E+00    1.170E+00    1.164E+00    1.158E+00    1.153E+00    1.147E+00
     1.141E+00    1.136E+00    1.130E+00    1.124E+00    1.119E+00    1.113E+00    1.107E+00    1.102E+00    1.096E+00    1.090E+00
     1.085E+00    1.079E+00    1.073E+00    1.068E+00    1.062E+00    1.057E+00    1.051E+00    1.045E+00    1.040E+00    1.034E+00
     1.029E+00    1.023E+00    1.017E+00    1.012E+00    1.006E+00    1.001E+00    9.951E-01    9.896E-01    9.840E-01    9.784E-01
     9.729E-01    9.673E-01    9.618E-01    9.562E-01    9.507E-01    9.452E-01    9.396E-01    9.341E-01    9.286E-01    9.231E-01
     9.176E-01    9.121E-01    9.065E-01    9.010E-01    8.955E-01    8.901E-01    8.846E-01    8.791E-01    8.736E-01    8.681E-01
     8.626E-01    8.572E-01    8.517E-01    8.462E-01    8.407E-01    8.353E-01    8.298E-01    8.244E-01    8.189E-01    8.134E-01
     8.080E-01    8.025E-01    7.971E-01    7.917E-01    7.862E-01    7.808E-01    7.753E-01    7.699E-01    7.645E-01    7.590E-01
     7.536E-01    7.482E-01    7.428E-01    7.373E-01    7.319E-01    7.265E-01    7.211E-01    7.156E-01
 Asp      Conc. = 7.50E+00
