 LCModel (Version 6.3-1L) Copyright: S.W. Provencher.          Ref.: Magn. Reson. Med. 30:672-679 (1993).                
 Slice#1 Row#14 Col#3  K_02_press_1_raw_act
 36 lines in following concentration table = NCONC+1
    Conc.  %SD /Cr+PCr  Metabolite                                         
    0.000 999%   0.000 Ala                                                 
    9.515 179%   0.000 Asp                                                 
    0.000 999%   0.000 Cr                                                  
    0.000 999%   0.000 PCr                                                 
    5.975 172%   0.000 GABA                                                
    5.868 175%   0.000 Glc                                                 
  522.453  75%   0.000 Gln                                                 
    0.000 999%   0.000 Glu                                                 
   45.469  40%   0.000 GPC                                                 
    0.000 999%   0.000 PCh                                                 
  297.298  24%   0.000 GSH                                                 
  186.657 128%   0.000 Ins                                                 
  883.549  58%   0.000 Lac                                                 
   56.573  97%   0.000 NAA                                                 
    0.000 999%   0.000 NAAG                                                
    2.203 154%   0.000 Scyllo                                              
    9.061 187%   0.000 Tau                                                 
   18.019 151%   0.000 -CrCH2                                              
   45.469  40%   0.000 GPC+PCh                                             
   56.573  97%   0.000 NAA+NAAG                                            
    0.000 999%   0.000 Cr+PCr                                              
  522.453  75%   0.000 Glu+Gln                                             
 1.59E+03  39%   0.000 Lip13a                                              
    0.000 999%   0.000 Lip13b                                              
  572.638  33%   0.000 Lip09                                               
  578.033  23%   0.000 MM09                                                
  329.973  42%   0.000 Lip20                                               
 1.01E+03  18%   0.000 MM20                                                
  200.196  48%   0.000 MM12                                                
  579.071  36%   0.000 MM14                                                
  553.773  18%   0.000 MM17                                                
 1.59E+03  34%   0.000 Lip13a+Lip13b                                       
 2.37E+03  21%   0.000 MM14+Lip13a+Lip13b+MM12                             
 1.15E+03  15%   0.000 MM09+Lip09                                          
 1.34E+03  13%   0.000 MM20+Lip20                                          
   6 lines in following misc. output table
  FWHM = 0.168 ppm    S/N =   3                                            
  Data shift = 0.206 ppm                                                   
  Ph:-114 deg      79.1 deg/ppm                                            
  alphaB,S = 2.5E+00,   1.0E+02                                            
    6 spline knots.   Ns = 9(2)                                            
  (16) 6 infls.   (15) 1 extrs.                                            
  498 points on ppm-axis = NY
      4.000000     3.992357     3.984714     3.977070     3.969427     3.961784     3.954141     3.946497     3.938854     3.931211
      3.923568     3.915925     3.908281     3.900638     3.892995     3.885352     3.877708     3.870065     3.862422     3.854779
      3.847136     3.839492     3.831849     3.824206     3.816563     3.808919     3.801276     3.793633     3.785990     3.778347
      3.770703     3.763060     3.755417     3.747774     3.740130     3.732487     3.724844     3.717201     3.709558     3.701914
      3.694271     3.686628     3.678985     3.671341     3.663698     3.656055     3.648412     3.640769     3.633125     3.625482
      3.617839     3.610196     3.602552     3.594909     3.587266     3.579623     3.571980     3.564336     3.556693     3.549050
      3.541407     3.533763     3.526120     3.518477     3.510834     3.503191     3.495547     3.487904     3.480261     3.472618
      3.464974     3.457331     3.449688     3.442045     3.434402     3.426758     3.419115     3.411472     3.403829     3.396185
      3.388542     3.380899     3.373256     3.365613     3.357969     3.350326     3.342683     3.335040     3.327396     3.319753
      3.312110     3.304467     3.296824     3.289180     3.281537     3.273894     3.266251     3.258607     3.250964     3.243321
      3.235678     3.228034     3.220391     3.212748     3.205105     3.197462     3.189818     3.182175     3.174532     3.166889
      3.159245     3.151602     3.143959     3.136316     3.128673     3.121029     3.113386     3.105743     3.098100     3.090456
      3.082813     3.075170     3.067527     3.059884     3.052240     3.044597     3.036954     3.029311     3.021667     3.014024
      3.006381     2.998738     2.991095     2.983451     2.975808     2.968165     2.960522     2.952878     2.945235     2.937592
      2.929949     2.922306     2.914662     2.907019     2.899376     2.891733     2.884089     2.876446     2.868803     2.861160
      2.853517     2.845873     2.838230     2.830587     2.822944     2.815300     2.807657     2.800014     2.792371     2.784728
      2.777084     2.769441     2.761798     2.754155     2.746511     2.738868     2.731225     2.723582     2.715939     2.708295
      2.700652     2.693009     2.685366     2.677722     2.670079     2.662436     2.654793     2.647150     2.639506     2.631863
      2.624220     2.616577     2.608933     2.601290     2.593647     2.586004     2.578361     2.570717     2.563074     2.555431
      2.547788     2.540144     2.532501     2.524858     2.517215     2.509572     2.501928     2.494285     2.486642     2.478999
      2.471355     2.463712     2.456069     2.448426     2.440783     2.433139     2.425496     2.417853     2.410210     2.402566
      2.394923     2.387280     2.379637     2.371994     2.364350     2.356707     2.349064     2.341421     2.333777     2.326134
      2.318491     2.310848     2.303205     2.295561     2.287918     2.280275     2.272632     2.264988     2.257345     2.249702
      2.242059     2.234416     2.226772     2.219129     2.211486     2.203843     2.196199     2.188556     2.180913     2.173270
      2.165627     2.157983     2.150340     2.142697     2.135054     2.127410     2.119767     2.112124     2.104481     2.096838
      2.089194     2.081551     2.073908     2.066265     2.058621     2.050978     2.043335     2.035692     2.028049     2.020405
      2.012762     2.005119     1.997476     1.989833     1.982190     1.974546     1.966903     1.959260     1.951617     1.943974
      1.936331     1.928688     1.921045     1.913402     1.905759     1.898115     1.890472     1.882829     1.875186     1.867543
      1.859900     1.852257     1.844614     1.836971     1.829327     1.821684     1.814041     1.806398     1.798755     1.791112
      1.783469     1.775826     1.768183     1.760540     1.752896     1.745253     1.737610     1.729967     1.722324     1.714681
      1.707038     1.699395     1.691752     1.684108     1.676465     1.668822     1.661179     1.653536     1.645893     1.638250
      1.630607     1.622964     1.615321     1.607677     1.600034     1.592391     1.584748     1.577105     1.569462     1.561819
      1.554176     1.546533     1.538890     1.531246     1.523603     1.515960     1.508317     1.500674     1.493031     1.485388
      1.477745     1.470102     1.462458     1.454815     1.447172     1.439529     1.431886     1.424243     1.416600     1.408957
      1.401314     1.393671     1.386027     1.378384     1.370741     1.363098     1.355455     1.347812     1.340169     1.332526
      1.324883     1.317240     1.309596     1.301953     1.294310     1.286667     1.279024     1.271381     1.263738     1.256095
      1.248452     1.240808     1.233165     1.225522     1.217879     1.210236     1.202593     1.194950     1.187307     1.179664
      1.172021     1.164377     1.156734     1.149091     1.141448     1.133805     1.126162     1.118519     1.110876     1.103233
      1.095590     1.087946     1.080303     1.072660     1.065017     1.057374     1.049731     1.042088     1.034445     1.026802
      1.019158     1.011515     1.003872     0.996229     0.988586     0.980943     0.973300     0.965657     0.958014     0.950371
      0.942727     0.935084     0.927441     0.919798     0.912155     0.904512     0.896869     0.889226     0.881583     0.873940
      0.866296     0.858653     0.851010     0.843367     0.835724     0.828081     0.820438     0.812795     0.805152     0.797508
      0.789865     0.782222     0.774579     0.766936     0.759293     0.751650     0.744007     0.736364     0.728721     0.721077
      0.713434     0.705791     0.698148     0.690505     0.682862     0.675219     0.667576     0.659933     0.652290     0.644646
      0.637003     0.629360     0.621717     0.614074     0.606431     0.598788     0.591145     0.583502     0.575858     0.568215
      0.560572     0.552929     0.545286     0.537643     0.530000     0.522357     0.514714     0.507071     0.499427     0.491784
      0.484141     0.476498     0.468855     0.461212     0.453569     0.445925     0.438282     0.430639     0.422996     0.415353
      0.407710     0.400067     0.392424     0.384780     0.377137     0.369494     0.361851     0.354208     0.346565     0.338922
      0.331278     0.323635     0.315992     0.308349     0.300706     0.293063     0.285420     0.277777     0.270133     0.262490
      0.254847     0.247204     0.239561     0.231918     0.224275     0.216631     0.208988     0.201345
 NY phased data points follow
   1.99370E+01  1.88922E+01  2.16056E+01  2.13606E+01  2.00933E+01  1.82939E+01  1.96639E+01  2.11757E+01  1.89848E+01  1.73629E+01
   1.83152E+01  1.99359E+01  1.94014E+01  1.77403E+01  2.10492E+01  1.89116E+01  2.08296E+01  2.03628E+01  2.14637E+01  1.96597E+01
   2.05945E+01  2.05458E+01  2.19565E+01  2.00996E+01  2.18705E+01  2.08128E+01  2.11793E+01  2.27583E+01  2.14304E+01  2.23499E+01
   2.28952E+01  2.25154E+01  2.26034E+01  2.16455E+01  2.32159E+01  2.27291E+01  2.26104E+01  2.03813E+01  2.20405E+01  2.20867E+01
   2.10405E+01  2.12052E+01  2.08649E+01  2.32005E+01  2.04745E+01  2.03673E+01  2.11589E+01  1.98921E+01  1.85480E+01  2.02891E+01
   2.01978E+01  2.10194E+01  2.24985E+01  1.58311E+01  2.02765E+01  2.10534E+01  2.07111E+01  1.90116E+01  1.76441E+01  1.78873E+01
   1.93121E+01  2.02597E+01  1.89752E+01  1.76801E+01  1.85191E+01  1.71727E+01  1.90832E+01  1.82788E+01  1.71218E+01  1.85500E+01
   1.80328E+01  1.61948E+01  1.62098E+01  1.70252E+01  1.61479E+01  1.75399E+01  1.50753E+01  1.63065E+01  1.91874E+01  1.57752E+01
   1.75934E+01  1.75348E+01  1.71043E+01  1.67267E+01  1.75219E+01  1.59666E+01  1.73406E+01  1.70883E+01  1.66080E+01  1.65692E+01
   1.89615E+01  1.71592E+01  1.69146E+01  1.74466E+01  1.77232E+01  1.55688E+01  1.59259E+01  1.37737E+01  1.53895E+01  1.73436E+01
   1.73323E+01  1.54260E+01  1.64946E+01  1.65869E+01  1.66830E+01  1.80380E+01  1.66159E+01  1.57310E+01  1.71683E+01  1.59712E+01
   1.66303E+01  1.52730E+01  1.56603E+01  1.70069E+01  1.62599E+01  1.48839E+01  1.61736E+01  1.57279E+01  1.74199E+01  1.60216E+01
   1.47316E+01  1.60345E+01  1.65852E+01  1.52288E+01  1.45615E+01  1.41877E+01  1.55165E+01  1.40248E+01  1.51170E+01  1.22562E+01
   1.27419E+01  1.24981E+01  1.36022E+01  1.25386E+01  1.31483E+01  1.20665E+01  1.12683E+01  1.26116E+01  1.39620E+01  1.28121E+01
   1.31811E+01  1.34220E+01  9.50349E+00  1.23984E+01  1.23174E+01  1.30451E+01  1.32931E+01  1.13625E+01  1.31223E+01  9.86233E+00
   1.25533E+01  1.16613E+01  1.07804E+01  1.06508E+01  9.72798E+00  9.48502E+00  1.01807E+01  9.23899E+00  1.09415E+01  1.21907E+01
   6.60361E+00  1.11645E+01  1.05275E+01  9.22515E+00  1.11481E+01  9.79372E+00  1.01595E+01  9.02097E+00  8.72202E+00  8.63745E+00
   9.90615E+00  9.78565E+00  9.97041E+00  6.65633E+00  6.03018E+00  7.89186E+00  7.67959E+00  7.21566E+00  6.10746E+00  1.01799E+01
   7.02470E+00  7.17739E+00  8.53114E+00  4.56683E+00  7.72468E+00  5.51714E+00  5.39732E+00  7.58862E+00  4.97069E+00  4.89440E+00
   6.70622E+00  4.45989E+00  3.64793E+00  3.37228E+00  3.31503E+00  3.59549E+00  2.25183E+00  2.25641E+00  4.50413E+00  3.52219E+00
   2.94155E+00  2.74977E+00  2.39124E+00  2.37028E+00  1.45738E+00  3.57554E+00  3.06277E+00  3.38615E+00  1.91997E+00  1.58535E+00
  -2.06708E-01  3.44745E+00  3.40683E+00  3.55900E+00 -8.97907E-01  2.96943E+00  9.98960E-01 -6.21001E-01  1.72497E+00  6.27710E-01
  -5.97833E-01  1.73570E+00 -3.62897E-01 -5.48414E-01 -1.79699E-01 -2.53476E-01 -1.51976E+00 -1.25617E+00 -1.58703E+00  1.57027E+00
   7.76972E-01  1.59550E-02  1.59293E+00  2.92171E+00  4.10662E+00  4.36341E+00  1.55091E+00  1.65931E+00  1.36217E+00  2.09951E-02
  -8.77331E-01  9.28129E-01  9.51473E-01 -2.49833E-02 -7.84281E-01 -1.18834E+00  2.19166E-02 -6.18380E-01 -7.88846E-01 -1.40875E+00
  -6.68194E-01 -9.89221E-01 -1.75531E+00  3.81370E-02 -4.63803E+00 -1.02243E+00 -2.14424E+00 -3.11368E+00 -2.93155E+00 -2.55032E+00
  -3.66645E+00 -1.83824E+00 -4.54912E+00 -4.37710E+00 -2.23753E+00 -2.84702E+00 -4.48790E+00 -4.58668E+00 -2.85146E+00 -6.68544E+00
  -3.49113E+00 -5.95826E+00 -6.26313E+00 -5.64691E+00 -7.50355E+00 -6.86373E+00 -8.81035E+00 -8.64369E+00 -1.08299E+01 -8.09244E+00
  -9.12997E+00 -1.20320E+01 -1.28830E+01 -1.23287E+01 -1.24586E+01 -1.46717E+01 -1.30527E+01 -1.32688E+01 -1.12906E+01 -1.33404E+01
  -1.36454E+01 -1.26307E+01 -1.29473E+01 -1.21060E+01 -1.17504E+01 -1.08782E+01 -9.16412E+00 -1.24398E+01 -1.06098E+01 -9.24268E+00
  -9.94134E+00 -1.13054E+01 -9.85388E+00 -6.86410E+00 -8.49363E+00 -7.81013E+00 -9.69680E+00 -6.56764E+00 -6.75699E+00 -6.71524E+00
  -7.60017E+00 -6.85848E+00 -7.09126E+00 -7.71342E+00 -6.16804E+00 -5.95751E+00 -6.84634E+00 -7.58085E+00 -7.47110E+00 -5.90598E+00
  -6.65309E+00 -9.05476E+00 -8.90913E+00 -7.73583E+00 -6.01117E+00 -8.89115E+00 -8.36189E+00 -7.31634E+00 -6.96054E+00 -6.05940E+00
  -5.10030E+00 -9.43976E+00 -6.60163E+00 -7.43444E+00 -9.03531E+00 -7.31915E+00 -5.20474E+00 -6.71295E+00 -7.91507E+00 -5.02905E+00
  -4.65191E+00 -6.81531E+00 -4.92761E+00 -6.47836E+00 -6.02998E+00 -5.01418E+00 -4.12075E+00 -8.90697E+00 -6.46744E+00 -7.16410E+00
  -5.60409E+00 -5.79903E+00 -3.07701E+00 -4.66107E+00 -5.46466E+00 -5.11801E+00 -4.43075E+00 -4.70419E+00 -7.47175E+00 -4.91615E+00
  -7.06871E+00 -4.47605E+00 -3.37862E+00 -4.37724E+00 -3.81661E+00 -4.80275E+00 -3.89330E+00 -5.48872E+00 -7.13453E+00 -7.26862E+00
  -3.34433E+00 -3.82966E+00 -3.86947E+00 -2.23214E+00 -5.12413E+00 -7.00693E+00 -3.70612E+00 -3.65224E+00 -4.10536E+00 -4.94129E+00
  -5.84456E+00 -4.75306E+00 -4.49960E+00 -6.15984E+00 -3.52829E+00 -4.92637E+00 -3.77101E+00 -5.13841E+00 -4.18349E+00 -4.33588E+00
  -5.81446E+00 -5.62520E+00 -4.64472E+00 -3.05765E+00 -5.28774E+00 -3.48290E+00 -3.21738E+00 -2.32654E+00 -2.56027E+00 -4.38942E+00
  -2.95591E+00 -4.95224E+00 -1.97192E+00 -3.71192E+00 -5.29440E+00 -2.59419E+00 -3.28908E+00 -2.01414E+00 -3.81658E+00 -3.43864E+00
  -4.54847E+00 -5.05864E+00 -2.72407E+00 -2.05882E+00 -3.27679E+00 -5.27712E+00 -2.61531E+00 -1.60966E+00 -4.44704E+00 -2.52170E+00
  -3.68172E+00 -1.71892E+00 -2.22332E+00 -2.30697E+00 -3.76512E+00 -2.82164E+00 -2.67928E+00 -2.09632E+00 -4.46852E+00 -5.55643E+00
  -3.09861E+00 -3.01651E+00 -4.97389E+00 -3.37399E+00 -1.43632E+00 -2.60698E+00 -2.21846E+00 -2.59030E+00 -2.16414E+00 -7.58501E-01
  -3.61348E-01 -1.55720E+00 -2.46890E+00 -2.04781E+00 -1.32245E+00 -1.17695E+00 -1.35614E+00  1.97090E-01 -7.29495E-01 -1.43280E+00
  -2.85499E+00 -2.39902E+00 -6.49407E-01 -3.68739E-01  1.28071E-01 -1.18132E+00 -3.45381E+00 -3.53743E+00  3.11535E-01 -1.54077E+00
  -2.08754E+00 -3.55817E-01 -3.82266E-01 -1.38563E+00 -7.08736E-01  9.62890E-02 -1.53088E+00 -2.68927E-01 -1.62560E+00 -1.70601E+00
  -5.77817E-01 -2.69329E+00 -1.56131E+00 -2.32612E+00 -1.82469E-01  6.51289E-01 -3.65781E-01 -1.01577E+00  2.46291E-01 -2.45510E+00
   3.28667E-01 -1.33413E+00 -2.04948E+00 -2.65820E+00 -1.79310E+00 -2.23363E+00 -2.25900E+00 -1.86994E+00 -2.27060E+00  1.58191E+00
   1.16557E-01  6.36584E-01  2.31795E-01  5.15326E-02 -8.57876E-01 -7.96656E-01 -4.76477E-01 -5.24282E-01
 NY points of the fit to the data follow
   2.05618E+01  2.01640E+01  2.03925E+01  2.00551E+01  2.02906E+01  2.00834E+01  2.03938E+01  2.01922E+01  2.03750E+01  2.01753E+01
   2.02179E+01  2.00471E+01  2.00620E+01  1.99258E+01  2.00601E+01  2.00001E+01  2.01172E+01  2.01221E+01  2.02400E+01  2.02854E+01
   2.04056E+01  2.04621E+01  2.07319E+01  2.07932E+01  2.11962E+01  2.12078E+01  2.16264E+01  2.15391E+01  2.18524E+01  2.16869E+01
   2.19113E+01  2.17071E+01  2.19583E+01  2.17731E+01  2.21405E+01  2.19286E+01  2.22519E+01  2.19496E+01  2.21034E+01  2.17399E+01
   2.17402E+01  2.13890E+01  2.13651E+01  2.10901E+01  2.11026E+01  2.08321E+01  2.06796E+01  2.03786E+01  1.99878E+01  1.97099E+01
   1.92702E+01  1.91948E+01  1.90655E+01  1.91013E+01  1.90681E+01  1.90649E+01  1.90042E+01  1.89242E+01  1.88264E+01  1.87123E+01
   1.86252E+01  1.85392E+01  1.84620E+01  1.83706E+01  1.82885E+01  1.81874E+01  1.81052E+01  1.79951E+01  1.79342E+01  1.78555E+01
   1.78220E+01  1.77436E+01  1.77062E+01  1.76284E+01  1.75895E+01  1.75034E+01  1.74594E+01  1.73578E+01  1.73072E+01  1.71921E+01
   1.71321E+01  1.70229E+01  1.69676E+01  1.68657E+01  1.68234E+01  1.67580E+01  1.67380E+01  1.66507E+01  1.66293E+01  1.65235E+01
   1.65016E+01  1.64125E+01  1.64032E+01  1.63377E+01  1.63689E+01  1.63656E+01  1.64535E+01  1.64674E+01  1.65936E+01  1.65652E+01
   1.66959E+01  1.65922E+01  1.67027E+01  1.65616E+01  1.66698E+01  1.65402E+01  1.66689E+01  1.65704E+01  1.67105E+01  1.65369E+01
   1.66334E+01  1.63735E+01  1.64157E+01  1.61165E+01  1.61223E+01  1.58548E+01  1.58550E+01  1.56159E+01  1.55892E+01  1.53005E+01
   1.52080E+01  1.49101E+01  1.47848E+01  1.45521E+01  1.44552E+01  1.44149E+01  1.43849E+01  1.43268E+01  1.42890E+01  1.41876E+01
   1.41341E+01  1.39946E+01  1.39466E+01  1.37936E+01  1.37878E+01  1.36231E+01  1.36657E+01  1.34696E+01  1.35301E+01  1.32632E+01
   1.32933E+01  1.29744E+01  1.29775E+01  1.26508E+01  1.26728E+01  1.23622E+01  1.24138E+01  1.21036E+01  1.21379E+01  1.17906E+01
   1.17663E+01  1.14219E+01  1.13623E+01  1.10795E+01  1.10321E+01  1.08306E+01  1.07905E+01  1.05512E+01  1.04206E+01  1.01550E+01
   9.94588E+00  9.71112E+00  9.49386E+00  9.30506E+00  9.11338E+00  8.93114E+00  8.74389E+00  8.55339E+00  8.36574E+00  8.17091E+00
   7.98746E+00  7.80019E+00  7.62555E+00  7.44033E+00  7.26982E+00  7.07157E+00  6.89018E+00  6.67304E+00  6.48587E+00  6.25717E+00
   6.07121E+00  5.86444E+00  5.70682E+00  5.54020E+00  5.40937E+00  5.25431E+00  5.10163E+00  4.94841E+00  4.73667E+00  4.56554E+00
   4.29631E+00  4.14405E+00  3.84681E+00  3.80808E+00  3.56792E+00  3.63430E+00  3.40965E+00  3.50166E+00  3.19503E+00  3.27008E+00
   2.86081E+00  2.91630E+00  2.42816E+00  2.55059E+00  2.09174E+00  2.30920E+00  1.90966E+00  2.14969E+00  1.76164E+00  1.97459E+00
   1.57624E+00  1.74780E+00  1.38591E+00  1.56354E+00  1.26729E+00  1.47242E+00  1.25511E+00  1.41886E+00  1.19920E+00  1.27669E+00
   1.04693E+00  1.07082E+00  8.69648E-01  8.81087E-01  7.11593E-01  7.44215E-01  6.50183E-01  7.05285E-01  6.43854E-01  6.77133E-01
   5.89259E-01  5.30133E-01  3.38030E-01  3.05218E-01  1.30510E-01  6.89141E-02 -1.15813E-01 -1.90311E-01 -3.45396E-01 -4.08695E-01
  -5.11346E-01 -5.28899E-01 -5.36403E-01 -5.38807E-01 -5.25048E-01 -5.61131E-01 -5.75010E-01 -6.80027E-01 -7.04793E-01 -8.58588E-01
  -8.82558E-01 -1.06162E+00 -1.05855E+00 -1.30526E+00 -1.35042E+00 -1.62947E+00 -1.74977E+00 -2.09502E+00 -2.32420E+00 -2.61802E+00
  -2.84040E+00 -3.11648E+00 -3.34503E+00 -3.57592E+00 -3.84542E+00 -4.10983E+00 -4.45060E+00 -4.73815E+00 -5.12024E+00 -5.42540E+00
  -5.82365E+00 -6.13998E+00 -6.50406E+00 -6.78868E+00 -7.11376E+00 -7.37239E+00 -7.70138E+00 -7.94942E+00 -8.28368E+00 -8.52933E+00
  -8.82891E+00 -9.05965E+00 -9.25829E+00 -9.44212E+00 -9.61461E+00 -9.77574E+00 -9.92483E+00 -1.00614E+01 -1.01848E+01 -1.02935E+01
  -1.03861E+01 -1.04608E+01 -1.05155E+01 -1.05469E+01 -1.05530E+01 -1.05302E+01 -1.04765E+01 -1.03885E+01 -1.02651E+01 -1.01048E+01
  -9.90907E+00 -9.67871E+00 -9.41817E+00 -9.13211E+00 -8.82790E+00 -8.51342E+00 -8.19861E+00 -7.89303E+00 -7.60763E+00 -7.35160E+00
  -7.13425E+00 -6.96177E+00 -6.83949E+00 -6.76914E+00 -6.75027E+00 -6.77932E+00 -6.85065E+00 -6.95620E+00 -7.08695E+00 -7.23248E+00
  -7.38287E+00 -7.52800E+00 -7.65958E+00 -7.76990E+00 -7.85383E+00 -7.90667E+00 -7.92613E+00 -7.90860E+00 -7.84954E+00 -7.73010E+00
  -7.53434E+00 -7.45879E+00 -7.32105E+00 -7.26537E+00 -7.14963E+00 -7.06350E+00 -6.89786E+00 -6.81119E+00 -6.43421E+00 -6.28469E+00
  -5.77007E+00 -5.76007E+00 -5.35999E+00 -5.58473E+00 -5.32292E+00 -5.72272E+00 -5.56678E+00 -6.00056E+00 -5.59504E+00 -5.92632E+00
  -5.17892E+00 -5.45687E+00 -4.54273E+00 -5.00321E+00 -4.36832E+00 -5.00243E+00 -4.61541E+00 -5.28742E+00 -4.90678E+00 -5.46133E+00
  -4.79085E+00 -5.19506E+00 -4.49729E+00 -4.97313E+00 -4.63797E+00 -5.10075E+00 -5.01406E+00 -5.28907E+00 -5.09382E+00 -5.02675E+00
  -4.37905E+00 -4.39487E+00 -4.16582E+00 -4.30449E+00 -4.53074E+00 -4.79667E+00 -5.34072E+00 -5.62321E+00 -5.76551E+00 -5.82941E+00
  -5.83863E+00 -5.80372E+00 -5.73259E+00 -5.62963E+00 -5.50012E+00 -5.34742E+00 -5.17656E+00 -4.99100E+00 -4.79597E+00 -4.59500E+00
  -4.39325E+00 -4.19402E+00 -4.00200E+00 -3.81986E+00 -3.65139E+00 -3.49810E+00 -3.36250E+00 -3.24473E+00 -3.14598E+00 -3.06510E+00
  -3.00206E+00 -2.95467E+00 -2.92206E+00 -2.90150E+00 -2.89184E+00 -2.89027E+00 -2.89579E+00 -2.90589E+00 -2.92003E+00 -2.93628E+00
  -2.95467E+00 -2.97381E+00 -2.99422E+00 -3.01491E+00 -3.03670E+00 -3.05882E+00 -3.08217E+00 -3.10594E+00 -3.13095E+00 -3.15622E+00
  -3.18237E+00 -3.20826E+00 -3.23433E+00 -3.25922E+00 -3.28325E+00 -3.30498E+00 -3.32472E+00 -3.34104E+00 -3.35430E+00 -3.36316E+00
  -3.36810E+00 -3.36793E+00 -3.36330E+00 -3.35321E+00 -3.33843E+00 -3.31811E+00 -3.29318E+00 -3.26290E+00 -3.22832E+00 -3.18879E+00
  -3.14541E+00 -3.09757E+00 -3.04643E+00 -2.99139E+00 -2.93363E+00 -2.87255E+00 -2.80930E+00 -2.74327E+00 -2.67559E+00 -2.60564E+00
  -2.53453E+00 -2.46160E+00 -2.38793E+00 -2.31283E+00 -2.23738E+00 -2.16087E+00 -2.08433E+00 -2.00703E+00 -1.92999E+00 -1.85246E+00
  -1.77545E+00 -1.69821E+00 -1.62170E+00 -1.54516E+00 -1.46955E+00 -1.39410E+00 -1.31977E+00 -1.24578E+00 -1.17306E+00 -1.10083E+00
  -1.03002E+00 -9.59832E-01 -8.91215E-01 -8.23355E-01 -7.57184E-01 -6.91884E-01 -6.28392E-01 -5.65892E-01 -5.05314E-01 -4.45833E-01
  -3.88371E-01 -3.32103E-01 -2.77960E-01 -2.25115E-01 -1.74490E-01 -1.25250E-01 -7.83160E-02 -3.28561E-02  1.02043E-02  5.16994E-02
   9.07120E-02  1.28084E-01  1.62894E-01  1.95981E-01  2.26423E-01  2.55062E-01  2.80987E-01  3.05043E-01
 NY background values follow
     1.968E+01    1.965E+01    1.963E+01    1.961E+01    1.958E+01    1.956E+01    1.954E+01    1.951E+01    1.949E+01    1.946E+01
     1.944E+01    1.941E+01    1.938E+01    1.936E+01    1.933E+01    1.931E+01    1.928E+01    1.925E+01    1.922E+01    1.919E+01
     1.917E+01    1.914E+01    1.911E+01    1.908E+01    1.905E+01    1.902E+01    1.899E+01    1.896E+01    1.893E+01    1.889E+01
     1.886E+01    1.883E+01    1.880E+01    1.876E+01    1.873E+01    1.870E+01    1.866E+01    1.863E+01    1.859E+01    1.855E+01
     1.852E+01    1.848E+01    1.844E+01    1.841E+01    1.837E+01    1.833E+01    1.829E+01    1.825E+01    1.821E+01    1.817E+01
     1.813E+01    1.808E+01    1.804E+01    1.800E+01    1.796E+01    1.791E+01    1.787E+01    1.782E+01    1.778E+01    1.773E+01
     1.768E+01    1.763E+01    1.759E+01    1.754E+01    1.749E+01    1.744E+01    1.739E+01    1.734E+01    1.728E+01    1.723E+01
     1.718E+01    1.712E+01    1.707E+01    1.701E+01    1.696E+01    1.690E+01    1.684E+01    1.679E+01    1.673E+01    1.667E+01
     1.661E+01    1.655E+01    1.649E+01    1.642E+01    1.636E+01    1.630E+01    1.623E+01    1.617E+01    1.610E+01    1.603E+01
     1.597E+01    1.590E+01    1.583E+01    1.576E+01    1.569E+01    1.562E+01    1.554E+01    1.547E+01    1.540E+01    1.532E+01
     1.525E+01    1.517E+01    1.509E+01    1.502E+01    1.494E+01    1.486E+01    1.478E+01    1.469E+01    1.461E+01    1.453E+01
     1.444E+01    1.436E+01    1.427E+01    1.418E+01    1.410E+01    1.401E+01    1.392E+01    1.383E+01    1.373E+01    1.364E+01
     1.355E+01    1.345E+01    1.336E+01    1.326E+01    1.316E+01    1.306E+01    1.296E+01    1.286E+01    1.276E+01    1.266E+01
     1.256E+01    1.245E+01    1.235E+01    1.224E+01    1.213E+01    1.202E+01    1.191E+01    1.180E+01    1.169E+01    1.157E+01
     1.146E+01    1.134E+01    1.123E+01    1.111E+01    1.099E+01    1.087E+01    1.075E+01    1.063E+01    1.051E+01    1.038E+01
     1.025E+01    1.013E+01    1.000E+01    9.871E+00    9.741E+00    9.609E+00    9.476E+00    9.343E+00    9.207E+00    9.071E+00
     8.934E+00    8.795E+00    8.655E+00    8.514E+00    8.371E+00    8.228E+00    8.083E+00    7.936E+00    7.789E+00    7.640E+00
     7.491E+00    7.340E+00    7.188E+00    7.034E+00    6.880E+00    6.725E+00    6.569E+00    6.411E+00    6.253E+00    6.094E+00
     5.934E+00    5.773E+00    5.611E+00    5.448E+00    5.284E+00    5.120E+00    4.955E+00    4.789E+00    4.622E+00    4.455E+00
     4.287E+00    4.118E+00    3.949E+00    3.779E+00    3.609E+00    3.438E+00    3.266E+00    3.095E+00    2.922E+00    2.749E+00
     2.576E+00    2.402E+00    2.228E+00    2.054E+00    1.879E+00    1.704E+00    1.529E+00    1.353E+00    1.178E+00    1.002E+00
     8.258E-01    6.496E-01    4.733E-01    2.969E-01    1.205E-01   -5.603E-02   -2.325E-01   -4.090E-01   -5.855E-01   -7.619E-01
    -9.382E-01   -1.114E+00   -1.290E+00   -1.466E+00   -1.642E+00   -1.817E+00   -1.993E+00   -2.168E+00   -2.342E+00   -2.517E+00
    -2.691E+00   -2.864E+00   -3.038E+00   -3.211E+00   -3.383E+00   -3.555E+00   -3.726E+00   -3.897E+00   -4.068E+00   -4.238E+00
    -4.407E+00   -4.575E+00   -4.743E+00   -4.911E+00   -5.077E+00   -5.243E+00   -5.408E+00   -5.573E+00   -5.736E+00   -5.899E+00
    -6.061E+00   -6.222E+00   -6.382E+00   -6.541E+00   -6.699E+00   -6.857E+00   -7.013E+00   -7.168E+00   -7.322E+00   -7.476E+00
    -7.628E+00   -7.779E+00   -7.928E+00   -8.077E+00   -8.224E+00   -8.371E+00   -8.515E+00   -8.659E+00   -8.801E+00   -8.942E+00
    -9.082E+00   -9.220E+00   -9.357E+00   -9.493E+00   -9.627E+00   -9.759E+00   -9.890E+00   -1.002E+01   -1.015E+01   -1.027E+01
    -1.040E+01   -1.052E+01   -1.064E+01   -1.076E+01   -1.088E+01   -1.100E+01   -1.111E+01   -1.123E+01   -1.134E+01   -1.145E+01
    -1.155E+01   -1.166E+01   -1.176E+01   -1.186E+01   -1.196E+01   -1.206E+01   -1.216E+01   -1.225E+01   -1.234E+01   -1.243E+01
    -1.252E+01   -1.260E+01   -1.269E+01   -1.277E+01   -1.285E+01   -1.292E+01   -1.300E+01   -1.307E+01   -1.314E+01   -1.321E+01
    -1.327E+01   -1.333E+01   -1.339E+01   -1.345E+01   -1.351E+01   -1.356E+01   -1.361E+01   -1.366E+01   -1.370E+01   -1.374E+01
    -1.378E+01   -1.382E+01   -1.386E+01   -1.389E+01   -1.392E+01   -1.394E+01   -1.397E+01   -1.399E+01   -1.401E+01   -1.402E+01
    -1.403E+01   -1.404E+01   -1.405E+01   -1.405E+01   -1.405E+01   -1.405E+01   -1.405E+01   -1.404E+01   -1.403E+01   -1.402E+01
    -1.400E+01   -1.398E+01   -1.396E+01   -1.394E+01   -1.391E+01   -1.388E+01   -1.385E+01   -1.382E+01   -1.378E+01   -1.374E+01
    -1.370E+01   -1.366E+01   -1.361E+01   -1.357E+01   -1.352E+01   -1.347E+01   -1.341E+01   -1.335E+01   -1.330E+01   -1.324E+01
    -1.317E+01   -1.311E+01   -1.304E+01   -1.298E+01   -1.291E+01   -1.283E+01   -1.276E+01   -1.268E+01   -1.261E+01   -1.253E+01
    -1.245E+01   -1.236E+01   -1.228E+01   -1.219E+01   -1.211E+01   -1.202E+01   -1.193E+01   -1.184E+01   -1.174E+01   -1.165E+01
    -1.155E+01   -1.146E+01   -1.136E+01   -1.126E+01   -1.116E+01   -1.106E+01   -1.095E+01   -1.085E+01   -1.074E+01   -1.064E+01
    -1.053E+01   -1.042E+01   -1.031E+01   -1.020E+01   -1.009E+01   -9.976E+00   -9.863E+00   -9.749E+00   -9.634E+00   -9.519E+00
    -9.402E+00   -9.286E+00   -9.168E+00   -9.050E+00   -8.931E+00   -8.812E+00   -8.693E+00   -8.573E+00   -8.452E+00   -8.331E+00
    -8.210E+00   -8.088E+00   -7.966E+00   -7.844E+00   -7.721E+00   -7.598E+00   -7.475E+00   -7.352E+00   -7.229E+00   -7.106E+00
    -6.982E+00   -6.859E+00   -6.736E+00   -6.613E+00   -6.489E+00   -6.366E+00   -6.243E+00   -6.121E+00   -5.998E+00   -5.876E+00
    -5.754E+00   -5.632E+00   -5.511E+00   -5.390E+00   -5.269E+00   -5.149E+00   -5.030E+00   -4.910E+00   -4.792E+00   -4.674E+00
    -4.557E+00   -4.440E+00   -4.324E+00   -4.208E+00   -4.094E+00   -3.980E+00   -3.867E+00   -3.755E+00   -3.643E+00   -3.533E+00
    -3.423E+00   -3.315E+00   -3.207E+00   -3.101E+00   -2.996E+00   -2.891E+00   -2.788E+00   -2.686E+00   -2.585E+00   -2.486E+00
    -2.387E+00   -2.290E+00   -2.195E+00   -2.100E+00   -2.007E+00   -1.916E+00   -1.826E+00   -1.737E+00   -1.650E+00   -1.565E+00
    -1.481E+00   -1.399E+00   -1.318E+00   -1.239E+00   -1.162E+00   -1.087E+00   -1.013E+00   -9.416E-01   -8.717E-01   -8.037E-01
    -7.376E-01   -6.734E-01   -6.113E-01   -5.511E-01   -4.930E-01   -4.370E-01   -3.832E-01   -3.314E-01   -2.819E-01   -2.346E-01
    -1.895E-01   -1.467E-01   -1.063E-01   -6.813E-02   -3.239E-02    9.314E-04    3.181E-02    6.021E-02
 Asp      Conc. = 9.52E+00
