 LCModel (Version 6.3-1L) Copyright: S.W. Provencher.          Ref.: Magn. Reson. Med. 30:672-679 (1993).                
 Slice#1 Row#11 Col#6  K_02_press_1_raw_act
 36 lines in following concentration table = NCONC+1
    Conc.  %SD /Cr+PCr  Metabolite                                         
    0.000 999%   0.000 Ala                                                 
    0.000 999%   0.000 Asp                                                 
  965.069  16%   0.662 Cr                                                  
  493.164  33%   0.338 PCr                                                 
    0.000 999%   0.000 GABA                                                
    0.000 999%   0.000 Glc                                                 
  587.711  30%   0.403 Gln                                                 
 1.49E+03  13%   1.023 Glu                                                 
  454.846   4%   0.312 GPC                                                 
    0.000 999%   0.000 PCh                                                 
  346.558  17%   0.238 GSH                                                 
 1.39E+03  15%   0.956 Ins                                                 
  174.091  53%   0.119 Lac                                                 
 2.38E+03   5%   1.634 NAA                                                 
  436.574  25%   0.299 NAAG                                                
   41.785  56% 2.9E-02 Scyllo                                              
    0.000 999%   0.000 Tau                                                 
  117.696  79% 8.1E-02 -CrCH2                                              
  454.846   4%   0.312 GPC+PCh                                             
 2.82E+03   3%   1.933 NAA+NAAG                                            
 1.46E+03   4%   1.000 Cr+PCr                                              
 2.08E+03  13%   1.426 Glu+Gln                                             
 2.09E+03  32%   1.430 Lip13a                                              
    0.000 999%   0.000 Lip13b                                              
  484.525  58%   0.332 Lip09                                               
 1.50E+03  21%   1.032 MM09                                                
  353.999  52%   0.243 Lip20                                               
 2.32E+03  16%   1.591 MM20                                                
  548.326  43%   0.376 MM12                                                
 1.39E+03  29%   0.950 MM14                                                
  932.136  23%   0.639 MM17                                                
 2.09E+03  32%   1.430 Lip13a+Lip13b                                       
 4.02E+03  10%   2.756 MM14+Lip13a+Lip13b+MM12                             
 1.99E+03   9%   1.364 MM09+Lip09                                          
 2.67E+03  13%   1.833 MM20+Lip20                                          
   6 lines in following misc. output table
  FWHM = 0.038 ppm    S/N =  16                                            
  Data shift = 0.008 ppm                                                   
  Ph:   5 deg       7.1 deg/ppm                                            
  alphaB,S = 4.0E+00,   7.3E+01                                            
   14 spline knots.   Ns = 6(1)                                            
  ( 4) 3 infls.   ( 3) 1 extrs.                                            
  498 points on ppm-axis = NY
      4.000000     3.992357     3.984714     3.977070     3.969427     3.961784     3.954141     3.946497     3.938854     3.931211
      3.923568     3.915925     3.908281     3.900638     3.892995     3.885352     3.877708     3.870065     3.862422     3.854779
      3.847136     3.839492     3.831849     3.824206     3.816563     3.808919     3.801276     3.793633     3.785990     3.778347
      3.770703     3.763060     3.755417     3.747774     3.740130     3.732487     3.724844     3.717201     3.709558     3.701914
      3.694271     3.686628     3.678985     3.671341     3.663698     3.656055     3.648412     3.640769     3.633125     3.625482
      3.617839     3.610196     3.602552     3.594909     3.587266     3.579623     3.571980     3.564336     3.556693     3.549050
      3.541407     3.533763     3.526120     3.518477     3.510834     3.503191     3.495547     3.487904     3.480261     3.472618
      3.464974     3.457331     3.449688     3.442045     3.434402     3.426758     3.419115     3.411472     3.403829     3.396185
      3.388542     3.380899     3.373256     3.365613     3.357969     3.350326     3.342683     3.335040     3.327396     3.319753
      3.312110     3.304467     3.296824     3.289180     3.281537     3.273894     3.266251     3.258607     3.250964     3.243321
      3.235678     3.228034     3.220391     3.212748     3.205105     3.197462     3.189818     3.182175     3.174532     3.166889
      3.159245     3.151602     3.143959     3.136316     3.128673     3.121029     3.113386     3.105743     3.098100     3.090456
      3.082813     3.075170     3.067527     3.059884     3.052240     3.044597     3.036954     3.029311     3.021667     3.014024
      3.006381     2.998738     2.991095     2.983451     2.975808     2.968165     2.960522     2.952878     2.945235     2.937592
      2.929949     2.922306     2.914662     2.907019     2.899376     2.891733     2.884089     2.876446     2.868803     2.861160
      2.853517     2.845873     2.838230     2.830587     2.822944     2.815300     2.807657     2.800014     2.792371     2.784728
      2.777084     2.769441     2.761798     2.754155     2.746511     2.738868     2.731225     2.723582     2.715939     2.708295
      2.700652     2.693009     2.685366     2.677722     2.670079     2.662436     2.654793     2.647150     2.639506     2.631863
      2.624220     2.616577     2.608933     2.601290     2.593647     2.586004     2.578361     2.570717     2.563074     2.555431
      2.547788     2.540144     2.532501     2.524858     2.517215     2.509572     2.501928     2.494285     2.486642     2.478999
      2.471355     2.463712     2.456069     2.448426     2.440783     2.433139     2.425496     2.417853     2.410210     2.402566
      2.394923     2.387280     2.379637     2.371994     2.364350     2.356707     2.349064     2.341421     2.333777     2.326134
      2.318491     2.310848     2.303205     2.295561     2.287918     2.280275     2.272632     2.264988     2.257345     2.249702
      2.242059     2.234416     2.226772     2.219129     2.211486     2.203843     2.196199     2.188556     2.180913     2.173270
      2.165627     2.157983     2.150340     2.142697     2.135054     2.127410     2.119767     2.112124     2.104481     2.096838
      2.089194     2.081551     2.073908     2.066265     2.058621     2.050978     2.043335     2.035692     2.028049     2.020405
      2.012762     2.005119     1.997476     1.989833     1.982190     1.974546     1.966903     1.959260     1.951617     1.943974
      1.936331     1.928688     1.921045     1.913402     1.905759     1.898115     1.890472     1.882829     1.875186     1.867543
      1.859900     1.852257     1.844614     1.836971     1.829327     1.821684     1.814041     1.806398     1.798755     1.791112
      1.783469     1.775826     1.768183     1.760540     1.752896     1.745253     1.737610     1.729967     1.722324     1.714681
      1.707038     1.699395     1.691752     1.684108     1.676465     1.668822     1.661179     1.653536     1.645893     1.638250
      1.630607     1.622964     1.615321     1.607677     1.600034     1.592391     1.584748     1.577105     1.569462     1.561819
      1.554176     1.546533     1.538890     1.531246     1.523603     1.515960     1.508317     1.500674     1.493031     1.485388
      1.477745     1.470102     1.462458     1.454815     1.447172     1.439529     1.431886     1.424243     1.416600     1.408957
      1.401314     1.393671     1.386027     1.378384     1.370741     1.363098     1.355455     1.347812     1.340169     1.332526
      1.324883     1.317240     1.309596     1.301953     1.294310     1.286667     1.279024     1.271381     1.263738     1.256095
      1.248452     1.240808     1.233165     1.225522     1.217879     1.210236     1.202593     1.194950     1.187307     1.179664
      1.172021     1.164377     1.156734     1.149091     1.141448     1.133805     1.126162     1.118519     1.110876     1.103233
      1.095590     1.087946     1.080303     1.072660     1.065017     1.057374     1.049731     1.042088     1.034445     1.026802
      1.019158     1.011515     1.003872     0.996229     0.988586     0.980943     0.973300     0.965657     0.958014     0.950371
      0.942727     0.935084     0.927441     0.919798     0.912155     0.904512     0.896869     0.889226     0.881583     0.873940
      0.866296     0.858653     0.851010     0.843367     0.835724     0.828081     0.820438     0.812795     0.805152     0.797508
      0.789865     0.782222     0.774579     0.766936     0.759293     0.751650     0.744007     0.736364     0.728721     0.721077
      0.713434     0.705791     0.698148     0.690505     0.682862     0.675219     0.667576     0.659933     0.652290     0.644646
      0.637003     0.629360     0.621717     0.614074     0.606431     0.598788     0.591145     0.583502     0.575858     0.568215
      0.560572     0.552929     0.545286     0.537643     0.530000     0.522357     0.514714     0.507071     0.499427     0.491784
      0.484141     0.476498     0.468855     0.461212     0.453569     0.445925     0.438282     0.430639     0.422996     0.415353
      0.407710     0.400067     0.392424     0.384780     0.377137     0.369494     0.361851     0.354208     0.346565     0.338922
      0.331278     0.323635     0.315992     0.308349     0.300706     0.293063     0.285420     0.277777     0.270133     0.262490
      0.254847     0.247204     0.239561     0.231918     0.224275     0.216631     0.208988     0.201345
 NY phased data points follow
   9.87683E-01 -5.23012E-01 -3.49249E+00 -6.37139E-01  3.46066E+00 -3.22379E+00  3.95501E+00  6.91877E+00  1.44976E+01  2.39267E+01
   2.41221E+01  2.98451E+01  2.65001E+01  2.19646E+01  1.50764E+01  1.48609E+01  1.35525E+01  1.61266E+00  5.55090E-01 -4.34829E+00
  -5.97990E-01 -4.34459E+00 -4.09267E+00 -5.61823E+00 -5.05388E+00 -1.75464E-01  2.47793E+00  4.61647E-01 -1.26365E+00  1.60358E+00
   5.02015E+00  3.16386E+00  5.34309E+00  6.98404E+00  2.07370E+00 -3.51231E-01 -1.88310E-02  2.34847E-01 -4.06055E-01 -8.26571E-01
   7.90861E-01 -8.61656E-01  7.42646E+00  5.50804E-01  1.62045E+00  3.11081E+00  2.66641E+00  8.28330E+00  1.09119E+01  5.49399E+00
   4.84236E+00  2.43867E+00 -2.35787E+00 -2.55896E+00 -3.49955E+00 -6.11797E+00  8.08737E-01  5.09870E-01  1.74565E+00  2.95945E+00
   4.58320E-02 -1.80861E+00 -3.71657E+00 -8.23764E+00 -8.72293E+00 -4.47413E+00 -7.57712E+00 -7.95965E+00 -5.08816E+00 -5.25118E+00
  -6.03648E+00 -2.74518E-01 -7.16667E+00 -7.54798E+00 -2.90572E+00 -5.71265E+00 -7.97233E+00 -5.23794E+00 -8.00040E+00 -4.34084E+00
  -7.87802E+00 -1.14347E+01 -6.67418E+00 -8.85566E+00 -4.52938E+00 -7.85907E+00 -1.24152E+01 -6.18225E+00 -8.51635E+00 -4.47375E+00
  -6.47072E+00 -4.16305E+00 -4.87597E+00 -3.33047E+00  3.19844E+00 -2.83795E+00  1.82968E-01 -1.79301E+00  1.13464E+00  8.07911E-01
   1.35710E+01  2.43579E+01  4.08126E+01  4.20825E+01  3.57353E+01  3.22113E+01  1.95091E+01  4.33716E+00  5.38046E+00  5.83508E-01
   7.77988E-01 -5.31362E+00 -6.01465E+00 -1.05718E+01 -5.47038E+00 -1.03706E+01 -4.13821E+00 -4.38661E+00 -7.08762E+00 -5.55070E+00
   2.16154E+00  1.54343E-01  2.60528E+00  1.44426E+00  1.29850E+01  3.02685E+01  3.77215E+01  5.33202E+01  4.76994E+01  3.75649E+01
   2.67446E+01  1.73775E+01  1.48734E+01  4.48625E+00  5.95884E+00  8.27015E-01 -4.46637E+00 -7.14892E+00 -4.22265E+00 -4.64307E+00
  -3.07860E+00 -6.96265E+00 -7.21329E-01 -9.22821E+00 -1.73903E+00 -6.62081E+00 -6.33780E+00 -7.97373E+00 -5.32425E+00 -7.23992E+00
  -7.08171E+00 -4.83620E+00 -1.09790E+01 -5.60693E+00 -6.20586E+00 -7.85217E+00 -6.89632E+00 -6.70277E+00 -6.28005E+00 -2.73815E+00
  -6.61176E+00 -4.47348E+00 -2.07460E+00 -6.33051E+00 -3.66063E+00 -4.23117E+00 -9.22684E+00 -1.12120E+01 -1.35352E+01 -1.26887E+01
  -1.53346E+01 -1.55169E+01 -1.65755E+01 -1.76989E+01 -1.96846E+01 -2.04194E+01 -2.54044E+01 -1.98737E+01 -1.75381E+01 -2.41878E+01
  -1.39489E+01 -1.79211E+01 -1.97232E+01 -1.52167E+01 -1.31463E+01 -1.41092E+01 -1.60647E+01 -1.33527E+01 -1.46973E+01 -1.36450E+01
  -1.08137E+01 -1.08723E+01 -1.06611E+01 -9.19124E+00 -1.22999E+01 -1.38962E+01 -1.83880E+01 -1.34149E+01 -1.50819E+01 -1.98111E+01
  -1.58390E+01 -1.03102E+01 -5.11024E+00 -7.46734E+00 -1.53995E+00 -7.55176E+00 -7.44477E+00 -1.39704E+01 -1.33975E+01 -1.32127E+01
  -1.10724E+01 -1.05760E+01 -1.02106E+01 -2.69668E+00  1.01065E+00  1.82018E-01  5.65453E+00  5.76722E+00 -8.26785E-01 -3.19874E-01
  -1.11633E+01 -1.35585E+01 -1.62554E+01 -1.18532E+01 -1.26243E+01 -9.19571E+00 -3.63009E+00 -1.85828E+00 -3.50441E+00  2.15718E+00
  -3.56560E+00 -2.47635E+00  2.02501E+00 -1.48490E+00 -2.50435E+00 -3.25043E+00 -3.40439E+00 -4.04728E+00 -2.89736E+00 -3.45752E+00
  -5.12088E+00 -8.17673E+00 -1.01811E+01 -4.84840E+00 -5.97532E+00  8.20113E-01  1.68462E+00  3.56631E+00  5.21704E-01  8.40289E+00
   5.54149E+00  9.50639E+00  6.90585E+00  1.39307E+01  2.95960E+01  3.20892E+01  3.49563E+01  4.36215E+01  6.26250E+01  9.36696E+01
   1.05548E+02  1.03692E+02  8.40667E+01  5.87846E+01  3.74947E+01  1.84677E+01  7.72328E+00 -9.29008E-01 -3.39598E+00 -3.89907E+00
  -8.13403E+00 -4.98205E+00 -8.47440E+00 -1.47838E+00 -2.55522E+00 -4.33584E-01 -5.52918E+00 -4.14471E+00 -4.86779E+00 -4.08251E+00
  -3.57038E+00 -6.17675E+00 -1.29357E+00 -5.27776E+00 -6.07614E+00 -1.13046E+01 -8.44075E+00 -4.48742E+00 -4.32126E+00 -5.72539E+00
  -5.50583E+00 -3.98643E+00 -1.91982E-02 -4.73829E+00 -1.60804E+00 -2.96125E+00 -6.73242E+00 -4.88554E+00 -6.72501E+00 -5.26778E+00
  -4.13452E+00 -3.75614E+00 -2.55033E+00 -1.52326E+00  3.30712E+00 -1.20375E+00  8.34937E-01 -1.80648E+00 -3.20942E-01 -1.80301E+00
   1.02435E+00  5.13704E-01  1.02390E+00  2.34019E+00 -1.18845E+00 -7.80022E-02  4.19293E+00 -3.81715E+00 -3.41752E+00 -3.41548E+00
  -5.71326E+00 -8.29424E+00 -6.03974E+00 -2.66802E+00 -1.22091E+00 -4.17708E+00 -3.18255E+00 -2.86577E+00 -1.84660E+00  1.00115E+00
  -1.51521E-01  1.43595E-01  5.15125E-01  5.64217E-01  5.73437E+00  2.62903E+00  2.82443E+00  3.35016E+00  2.84076E+00  5.68982E+00
   4.86514E+00  5.18661E+00  3.93813E+00  4.02874E+00  1.06340E+01  9.41698E+00  8.18603E+00  1.06126E+01  4.84411E+00  9.93211E+00
   9.11842E+00  1.73234E+00  5.65292E+00  1.68244E+00 -2.01897E+00  2.69467E+00  6.31854E-01  6.45788E-01  1.78642E+00  8.95542E+00
   2.83080E+00  4.41337E+00  5.43484E+00  4.43426E+00  2.42501E+00  2.16026E+00  6.12788E+00  2.19903E+00  5.49156E+00  3.93576E+00
   3.32396E+00  1.39437E+00  2.68526E+00  2.63918E+00  1.97188E+00  2.58787E+00  2.41023E+00 -4.12562E-02  1.44357E+00 -1.60228E+00
  -1.44262E+00 -1.81423E+00  2.51932E+00  7.90258E-01 -1.17874E+00 -2.32307E+00 -1.40943E+00 -4.74867E-01 -1.19065E+00  1.61947E+00
   9.26132E-01 -3.04879E-01  4.42757E+00  2.55913E+00  7.68653E+00 -4.26296E-01  6.15505E+00  4.96839E+00  6.15805E+00  8.32158E+00
   4.22430E+00  7.24381E+00  7.98591E+00  8.05171E+00  1.06127E+01  1.18519E+01  1.13751E+01  8.78897E+00  8.50612E+00  9.84114E+00
   6.07038E+00  9.00674E+00  3.53337E+00  6.91881E+00 -3.81308E-01  1.51314E+00  7.95567E+00  6.57096E+00  3.26670E+00 -9.05459E-01
  -5.30266E+00 -7.69873E-01 -1.47872E+00 -4.09691E+00 -3.91000E+00 -2.55852E+00  4.67781E-01 -2.59033E+00 -7.43925E+00 -2.23773E+00
  -5.56988E+00 -9.82986E+00 -7.18260E+00 -2.45849E+00 -1.25639E+00 -2.94465E+00 -5.66276E+00 -3.79654E+00 -3.14206E+00 -3.52057E+00
  -8.60739E+00 -2.26037E+00  6.99649E-01 -2.43302E+00 -2.87192E+00 -2.49639E+00 -1.26013E+00 -5.98849E+00 -3.83557E+00 -4.88654E+00
  -4.13190E+00 -1.41431E+00  1.22955E+00 -6.84978E+00 -4.83666E+00 -6.29654E-02 -3.50490E+00 -7.71733E+00 -2.30110E+00 -6.71071E-01
  -2.29255E+00 -3.83539E+00 -5.06172E+00 -5.33902E+00 -5.82886E+00 -3.54922E+00 -6.93614E+00 -3.57570E+00 -4.79734E+00 -2.28755E+00
  -4.33410E+00 -3.01626E+00 -5.38383E+00 -2.87082E+00 -5.14961E+00 -5.72890E+00 -2.93979E+00 -5.29453E+00 -3.24638E+00 -5.28357E+00
  -5.95903E+00 -5.54088E+00 -2.64435E+00 -3.36810E+00 -4.91113E+00 -6.18242E+00 -1.61154E+00 -8.22919E-01 -7.24711E+00 -3.49051E+00
  -6.25406E+00 -3.79946E+00 -5.15863E+00 -6.30488E+00 -3.00604E+00 -7.31962E+00 -5.49385E+00 -3.64228E+00
 NY points of the fit to the data follow
  -2.92028E+00 -3.25014E+00 -3.06521E+00 -2.20317E+00 -1.03409E+00  1.21465E+00  4.97197E+00  9.10058E+00  1.41116E+01  2.02695E+01
   2.60782E+01  2.91194E+01  2.78972E+01  2.31448E+01  1.69166E+01  1.09911E+01  6.32964E+00  3.09246E+00  7.51671E-01 -7.70405E-01
  -1.45130E+00 -1.81259E+00 -2.27727E+00 -2.52054E+00 -2.37222E+00 -2.57419E+00 -2.69008E+00 -1.80798E+00  4.30117E-01  3.37913E+00
   5.90501E+00  7.42896E+00  7.67178E+00  6.51799E+00  4.40622E+00  1.84359E+00 -7.32784E-01 -2.77488E+00 -4.01359E+00 -4.45935E+00
  -3.97093E+00 -2.76339E+00 -1.47938E+00 -3.30347E-01  1.35998E+00  4.04519E+00  6.95542E+00  8.58098E+00  8.05035E+00  5.61611E+00
   2.29794E+00 -8.59470E-01 -3.23327E+00 -4.59357E+00 -5.15707E+00 -5.13092E+00 -4.60845E+00 -3.71071E+00 -2.55812E+00 -1.51779E+00
  -1.04847E+00 -1.38275E+00 -2.46186E+00 -3.86656E+00 -5.11983E+00 -5.83408E+00 -5.91989E+00 -5.59976E+00 -5.04965E+00 -4.35896E+00
  -3.64652E+00 -3.13286E+00 -2.99312E+00 -3.23417E+00 -3.71428E+00 -4.23760E+00 -4.67917E+00 -4.99329E+00 -5.22085E+00 -5.38147E+00
  -5.46689E+00 -5.52710E+00 -5.70529E+00 -5.86034E+00 -5.90246E+00 -6.05210E+00 -6.55656E+00 -7.37686E+00 -8.18821E+00 -8.66467E+00
  -8.60202E+00 -8.12681E+00 -7.44334E+00 -6.70040E+00 -6.02446E+00 -5.42490E+00 -4.12374E+00 -1.27639E+00  7.05911E-01  4.08142E+00
   1.28281E+01  2.60941E+01  3.81720E+01  4.30921E+01  3.93646E+01  2.99210E+01  1.89565E+01  9.54196E+00  2.73856E+00 -2.01971E+00
  -5.16472E+00 -6.39878E+00 -6.72696E+00 -6.83493E+00 -6.86720E+00 -6.85177E+00 -6.80361E+00 -6.72929E+00 -6.58722E+00 -6.23553E+00
  -5.03275E+00 -1.72909E+00  1.91605E+00  5.64548E+00  1.35036E+01  2.67493E+01  4.09911E+01  4.95595E+01  4.88189E+01  4.03827E+01
   2.88058E+01  1.80285E+01  9.70798E+00  3.47540E+00 -1.49953E+00 -4.81152E+00 -6.53348E+00 -7.34157E+00 -7.36325E+00 -6.80177E+00
  -6.03800E+00 -5.41472E+00 -5.13281E+00 -5.22835E+00 -5.57516E+00 -6.00258E+00 -6.40092E+00 -6.72534E+00 -7.01790E+00 -7.26708E+00
  -7.47419E+00 -7.70881E+00 -7.96906E+00 -8.18918E+00 -8.34415E+00 -8.47933E+00 -8.36572E+00 -8.21865E+00 -8.45718E+00 -9.15217E+00
  -1.02020E+01 -1.08456E+01 -1.05926E+01 -9.78377E+00 -9.14886E+00 -9.17743E+00 -9.87453E+00 -1.08516E+01 -1.17265E+01 -1.23902E+01
  -1.28391E+01 -1.30312E+01 -1.31523E+01 -1.36513E+01 -1.45396E+01 -1.53174E+01 -1.52408E+01 -1.44235E+01 -1.36869E+01 -1.35824E+01
  -1.39395E+01 -1.42795E+01 -1.40131E+01 -1.34488E+01 -1.32030E+01 -1.31545E+01 -1.26822E+01 -1.14347E+01 -9.49238E+00 -7.41693E+00
  -5.81833E+00 -5.07793E+00 -5.38794E+00 -6.17937E+00 -7.04740E+00 -7.93312E+00 -8.68200E+00 -8.98264E+00 -8.58285E+00 -7.69019E+00
  -6.41153E+00 -4.90190E+00 -3.43993E+00 -2.49043E+00 -2.56004E+00 -3.57701E+00 -5.78859E+00 -9.00819E+00 -1.19949E+01 -1.38787E+01
  -1.42629E+01 -1.35815E+01 -1.18492E+01 -8.59844E+00 -4.30417E+00 -5.44468E-01  1.02598E+00 -5.53139E-04 -2.83383E+00 -6.64171E+00
  -1.10004E+01 -1.48382E+01 -1.67179E+01 -1.59570E+01 -1.29567E+01 -9.10937E+00 -5.61651E+00 -3.03329E+00 -1.66150E+00 -1.49864E+00
  -2.12326E+00 -2.85296E+00 -3.30795E+00 -3.34948E+00 -2.91133E+00 -2.03333E+00 -1.05367E+00 -3.58487E-01 -1.01167E-01 -5.11332E-01
  -1.66211E+00 -3.13376E+00 -4.08193E+00 -4.00551E+00 -2.99964E+00 -1.48093E+00  6.72570E-02  1.32257E+00  2.15331E+00  3.00862E+00
   4.11994E+00  5.02629E+00  6.97539E+00  1.18881E+01  2.28362E+01  3.23961E+01  3.69468E+01  4.67812E+01  6.72368E+01  9.09980E+01
   1.04705E+02  1.01009E+02  8.31129E+01  5.97109E+01  3.84708E+01  2.27529E+01  1.18237E+01  3.77864E+00 -4.46191E-01 -1.80601E+00
  -2.60444E+00 -3.13878E+00 -3.39037E+00 -3.46180E+00 -3.55432E+00 -3.76217E+00 -4.07070E+00 -4.42248E+00 -4.78830E+00 -5.12959E+00
  -5.40921E+00 -5.59846E+00 -5.69454E+00 -5.73047E+00 -5.75550E+00 -5.78618E+00 -5.81599E+00 -5.83740E+00 -5.82975E+00 -5.76594E+00
  -5.62078E+00 -5.39161E+00 -5.10685E+00 -4.79334E+00 -4.45986E+00 -4.12080E+00 -3.78599E+00 -3.45179E+00 -3.10910E+00 -2.74817E+00
  -2.37000E+00 -1.99120E+00 -1.63275E+00 -1.31318E+00 -1.04533E+00 -8.36574E-01 -6.93127E-01 -6.18738E-01 -6.09357E-01 -6.58622E-01
  -7.59098E-01 -9.02760E-01 -1.08115E+00 -1.28387E+00 -1.49804E+00 -1.70972E+00 -1.90620E+00 -2.07692E+00 -2.21308E+00 -2.30645E+00
  -2.34945E+00 -2.33642E+00 -2.26479E+00 -2.13463E+00 -1.94755E+00 -1.70556E+00 -1.41151E+00 -1.06987E+00 -6.87258E-01 -2.71369E-01
   1.70203E-01  6.30673E-01  1.10332E+00  1.58097E+00  2.05603E+00  2.52192E+00  2.97399E+00  3.41004E+00  3.82984E+00  4.23636E+00
   4.64043E+00  5.07714E+00  5.55499E+00  5.89671E+00  6.25318E+00  6.77794E+00  7.22624E+00  7.18573E+00  6.46182E+00  5.31980E+00
   4.27295E+00  3.41279E+00  2.85156E+00  2.84046E+00  3.46381E+00  4.51146E+00  5.57486E+00  6.23395E+00  6.37504E+00  6.13029E+00
   5.69246E+00  5.20394E+00  4.69955E+00  4.18767E+00  3.73789E+00  3.33482E+00  2.94972E+00  2.57242E+00  2.19970E+00  1.83210E+00
   1.47229E+00  1.12392E+00  7.90373E-01  4.74917E-01  1.81015E-01 -8.70459E-02 -3.24718E-01 -5.27750E-01 -6.92767E-01 -8.16631E-01
  -8.95952E-01 -9.26709E-01 -9.05019E-01 -8.27627E-01 -6.92217E-01 -4.96694E-01 -2.39037E-01  8.25727E-02  4.68625E-01  9.17820E-01
   1.42687E+00  1.99114E+00  2.60448E+00  3.25887E+00  3.94356E+00  4.64525E+00  5.34859E+00  6.03735E+00  6.69465E+00  7.30326E+00
   7.84565E+00  8.30514E+00  8.66707E+00  8.92009E+00  9.05616E+00  9.07067E+00  8.96225E+00  8.73338E+00  8.39059E+00  7.94435E+00
   7.40775E+00  6.79557E+00  6.12342E+00  5.40769E+00  4.66498E+00  3.91151E+00  3.16172E+00  2.42789E+00  1.71991E+00  1.04601E+00
   4.12617E-01 -1.75687E-01 -7.16700E-01 -1.21013E+00 -1.65706E+00 -2.05901E+00 -2.41805E+00 -2.73679E+00 -3.01875E+00 -3.26770E+00
  -3.48722E+00 -3.68016E+00 -3.84916E+00 -3.99689E+00 -4.12629E+00 -4.23994E+00 -4.33987E+00 -4.42735E+00 -4.50367E+00 -4.57022E+00
  -4.62865E+00 -4.68012E+00 -4.72530E+00 -4.76446E+00 -4.79816E+00 -4.82722E+00 -4.85255E+00 -4.87456E+00 -4.89330E+00 -4.90869E+00
  -4.92115E+00 -4.93126E+00 -4.93957E+00 -4.94603E+00 -4.95047E+00 -4.95280E+00 -4.95347E+00 -4.95293E+00 -4.95145E+00 -4.94875E+00
  -4.94462E+00 -4.93910E+00 -4.93268E+00 -4.92566E+00 -4.91806E+00 -4.90949E+00 -4.89984E+00 -4.88929E+00 -4.87833E+00 -4.86708E+00
  -4.85536E+00 -4.84280E+00 -4.82942E+00 -4.81552E+00 -4.80151E+00 -4.78730E+00 -4.77262E+00 -4.75718E+00 -4.74118E+00 -4.72497E+00
  -4.70880E+00 -4.69242E+00 -4.67553E+00 -4.65799E+00 -4.64014E+00 -4.62229E+00 -4.60450E+00 -4.58641E+00 -4.56779E+00 -4.54867E+00
  -4.52947E+00 -4.51037E+00 -4.49127E+00 -4.47176E+00 -4.45174E+00 -4.43138E+00 -4.41112E+00 -4.39095E+00
 NY background values follow
    -6.476E+00   -6.497E+00   -6.517E+00   -6.537E+00   -6.558E+00   -6.578E+00   -6.599E+00   -6.619E+00   -6.639E+00   -6.660E+00
    -6.680E+00   -6.701E+00   -6.721E+00   -6.741E+00   -6.762E+00   -6.782E+00   -6.802E+00   -6.823E+00   -6.843E+00   -6.864E+00
    -6.884E+00   -6.904E+00   -6.925E+00   -6.945E+00   -6.965E+00   -6.986E+00   -7.006E+00   -7.026E+00   -7.047E+00   -7.067E+00
    -7.087E+00   -7.108E+00   -7.128E+00   -7.148E+00   -7.169E+00   -7.189E+00   -7.209E+00   -7.229E+00   -7.250E+00   -7.270E+00
    -7.290E+00   -7.311E+00   -7.331E+00   -7.351E+00   -7.371E+00   -7.391E+00   -7.412E+00   -7.432E+00   -7.452E+00   -7.472E+00
    -7.492E+00   -7.512E+00   -7.533E+00   -7.553E+00   -7.573E+00   -7.593E+00   -7.613E+00   -7.633E+00   -7.653E+00   -7.673E+00
    -7.693E+00   -7.713E+00   -7.733E+00   -7.753E+00   -7.773E+00   -7.793E+00   -7.813E+00   -7.832E+00   -7.852E+00   -7.872E+00
    -7.892E+00   -7.911E+00   -7.931E+00   -7.951E+00   -7.970E+00   -7.990E+00   -8.010E+00   -8.029E+00   -8.049E+00   -8.068E+00
    -8.087E+00   -8.107E+00   -8.126E+00   -8.146E+00   -8.165E+00   -8.184E+00   -8.203E+00   -8.222E+00   -8.241E+00   -8.261E+00
    -8.280E+00   -8.298E+00   -8.317E+00   -8.336E+00   -8.355E+00   -8.374E+00   -8.393E+00   -8.411E+00   -8.430E+00   -8.449E+00
    -8.467E+00   -8.486E+00   -8.504E+00   -8.522E+00   -8.541E+00   -8.559E+00   -8.577E+00   -8.595E+00   -8.613E+00   -8.631E+00
    -8.649E+00   -8.667E+00   -8.685E+00   -8.703E+00   -8.720E+00   -8.738E+00   -8.756E+00   -8.773E+00   -8.791E+00   -8.808E+00
    -8.825E+00   -8.842E+00   -8.860E+00   -8.877E+00   -8.894E+00   -8.911E+00   -8.927E+00   -8.944E+00   -8.961E+00   -8.978E+00
    -8.994E+00   -9.011E+00   -9.027E+00   -9.043E+00   -9.060E+00   -9.076E+00   -9.092E+00   -9.108E+00   -9.124E+00   -9.140E+00
    -9.155E+00   -9.171E+00   -9.186E+00   -9.202E+00   -9.217E+00   -9.232E+00   -9.247E+00   -9.262E+00   -9.277E+00   -9.292E+00
    -9.307E+00   -9.321E+00   -9.335E+00   -9.350E+00   -9.364E+00   -9.378E+00   -9.392E+00   -9.405E+00   -9.419E+00   -9.432E+00
    -9.445E+00   -9.458E+00   -9.471E+00   -9.484E+00   -9.497E+00   -9.509E+00   -9.521E+00   -9.533E+00   -9.545E+00   -9.557E+00
    -9.568E+00   -9.580E+00   -9.591E+00   -9.602E+00   -9.613E+00   -9.623E+00   -9.634E+00   -9.644E+00   -9.654E+00   -9.664E+00
    -9.673E+00   -9.682E+00   -9.691E+00   -9.700E+00   -9.709E+00   -9.718E+00   -9.726E+00   -9.734E+00   -9.742E+00   -9.749E+00
    -9.757E+00   -9.764E+00   -9.771E+00   -9.777E+00   -9.784E+00   -9.790E+00   -9.796E+00   -9.802E+00   -9.808E+00   -9.813E+00
    -9.819E+00   -9.824E+00   -9.828E+00   -9.833E+00   -9.837E+00   -9.842E+00   -9.846E+00   -9.849E+00   -9.853E+00   -9.856E+00
    -9.859E+00   -9.862E+00   -9.865E+00   -9.867E+00   -9.870E+00   -9.872E+00   -9.873E+00   -9.875E+00   -9.877E+00   -9.878E+00
    -9.879E+00   -9.880E+00   -9.880E+00   -9.881E+00   -9.881E+00   -9.881E+00   -9.880E+00   -9.880E+00   -9.879E+00   -9.878E+00
    -9.877E+00   -9.876E+00   -9.875E+00   -9.873E+00   -9.871E+00   -9.869E+00   -9.867E+00   -9.864E+00   -9.861E+00   -9.859E+00
    -9.855E+00   -9.852E+00   -9.849E+00   -9.845E+00   -9.841E+00   -9.837E+00   -9.833E+00   -9.828E+00   -9.823E+00   -9.819E+00
    -9.814E+00   -9.808E+00   -9.803E+00   -9.797E+00   -9.791E+00   -9.785E+00   -9.779E+00   -9.773E+00   -9.766E+00   -9.759E+00
    -9.752E+00   -9.745E+00   -9.738E+00   -9.730E+00   -9.722E+00   -9.714E+00   -9.706E+00   -9.698E+00   -9.690E+00   -9.681E+00
    -9.672E+00   -9.663E+00   -9.654E+00   -9.644E+00   -9.635E+00   -9.625E+00   -9.615E+00   -9.605E+00   -9.595E+00   -9.584E+00
    -9.574E+00   -9.563E+00   -9.552E+00   -9.541E+00   -9.529E+00   -9.518E+00   -9.506E+00   -9.494E+00   -9.482E+00   -9.470E+00
    -9.458E+00   -9.445E+00   -9.433E+00   -9.420E+00   -9.407E+00   -9.394E+00   -9.380E+00   -9.367E+00   -9.353E+00   -9.339E+00
    -9.325E+00   -9.311E+00   -9.297E+00   -9.283E+00   -9.268E+00   -9.253E+00   -9.238E+00   -9.223E+00   -9.208E+00   -9.193E+00
    -9.177E+00   -9.162E+00   -9.146E+00   -9.130E+00   -9.114E+00   -9.098E+00   -9.082E+00   -9.065E+00   -9.048E+00   -9.032E+00
    -9.015E+00   -8.998E+00   -8.981E+00   -8.963E+00   -8.946E+00   -8.928E+00   -8.911E+00   -8.893E+00   -8.875E+00   -8.857E+00
    -8.839E+00   -8.820E+00   -8.802E+00   -8.783E+00   -8.764E+00   -8.746E+00   -8.727E+00   -8.708E+00   -8.688E+00   -8.669E+00
    -8.650E+00   -8.630E+00   -8.610E+00   -8.591E+00   -8.571E+00   -8.551E+00   -8.531E+00   -8.511E+00   -8.490E+00   -8.470E+00
    -8.449E+00   -8.429E+00   -8.408E+00   -8.387E+00   -8.366E+00   -8.345E+00   -8.324E+00   -8.303E+00   -8.282E+00   -8.260E+00
    -8.239E+00   -8.217E+00   -8.195E+00   -8.174E+00   -8.152E+00   -8.130E+00   -8.108E+00   -8.086E+00   -8.063E+00   -8.041E+00
    -8.019E+00   -7.996E+00   -7.974E+00   -7.951E+00   -7.928E+00   -7.905E+00   -7.882E+00   -7.860E+00   -7.836E+00   -7.813E+00
    -7.790E+00   -7.767E+00   -7.744E+00   -7.720E+00   -7.697E+00   -7.673E+00   -7.649E+00   -7.626E+00   -7.602E+00   -7.578E+00
    -7.554E+00   -7.530E+00   -7.506E+00   -7.482E+00   -7.458E+00   -7.434E+00   -7.409E+00   -7.385E+00   -7.361E+00   -7.336E+00
    -7.312E+00   -7.287E+00   -7.262E+00   -7.238E+00   -7.213E+00   -7.188E+00   -7.163E+00   -7.138E+00   -7.113E+00   -7.088E+00
    -7.063E+00   -7.038E+00   -7.013E+00   -6.988E+00   -6.963E+00   -6.937E+00   -6.912E+00   -6.887E+00   -6.861E+00   -6.836E+00
    -6.810E+00   -6.785E+00   -6.759E+00   -6.733E+00   -6.708E+00   -6.682E+00   -6.656E+00   -6.631E+00   -6.605E+00   -6.579E+00
    -6.553E+00   -6.527E+00   -6.502E+00   -6.476E+00   -6.450E+00   -6.424E+00   -6.398E+00   -6.372E+00   -6.346E+00   -6.320E+00
    -6.294E+00   -6.268E+00   -6.241E+00   -6.215E+00   -6.189E+00   -6.163E+00   -6.137E+00   -6.111E+00   -6.085E+00   -6.058E+00
    -6.032E+00   -6.006E+00   -5.980E+00   -5.954E+00   -5.928E+00   -5.901E+00   -5.875E+00   -5.849E+00   -5.823E+00   -5.797E+00
    -5.770E+00   -5.744E+00   -5.718E+00   -5.692E+00   -5.666E+00   -5.639E+00   -5.613E+00   -5.587E+00   -5.561E+00   -5.534E+00
    -5.508E+00   -5.482E+00   -5.456E+00   -5.430E+00   -5.403E+00   -5.377E+00   -5.351E+00   -5.325E+00   -5.298E+00   -5.272E+00
    -5.246E+00   -5.220E+00   -5.193E+00   -5.167E+00   -5.141E+00   -5.115E+00   -5.089E+00   -5.062E+00   -5.036E+00   -5.010E+00
    -4.984E+00   -4.957E+00   -4.931E+00   -4.905E+00   -4.879E+00   -4.853E+00   -4.826E+00   -4.800E+00
 Cr       Conc. = 9.65E+02
