 LCModel (Version 6.3-1L) Copyright: S.W. Provencher.          Ref.: Magn. Reson. Med. 30:672-679 (1993).                
 Slice#2 Row#6 Col#2  K_02_press_1_raw_act
 36 lines in following concentration table = NCONC+1
    Conc.  %SD /Cr+PCr  Metabolite                                         
  541.493  31%   0.736 Ala                                                 
    0.000 999%   0.000 Asp                                                 
   19.848 999% 2.7E-02 Cr                                                  
  715.991  40%   0.973 PCr                                                 
   73.896  85%   0.100 GABA                                                
    0.000 999%   0.000 Glc                                                 
    0.000 999%   0.000 Gln                                                 
  657.933  52%   0.894 Glu                                                 
  112.454  18%   0.153 GPC                                                 
    0.000 999%   0.000 PCh                                                 
  324.484  23%   0.441 GSH                                                 
  497.816  49%   0.677 Ins                                                 
    0.000 999%   0.000 Lac                                                 
  761.475  14%   1.035 NAA                                                 
  182.915  58%   0.249 NAAG                                                
    0.000 999%   0.000 Scyllo                                              
    0.000 999%   0.000 Tau                                                 
    0.000 999%   0.000 -CrCH2                                              
  112.454  18%   0.153 GPC+PCh                                             
  944.390   6%   1.283 NAA+NAAG                                            
  735.839   7%   1.000 Cr+PCr                                              
  657.933  52%   0.894 Glu+Gln                                             
    0.000 999%   0.000 Lip13a                                              
    0.000 999%   0.000 Lip13b                                              
    0.000 999%   0.000 Lip09                                               
    0.000 999%   0.000 MM09                                                
 4.31E-03 999% 5.9E-06 Lip20                                               
 5.08E-02 999% 6.9E-05 MM20                                                
    0.000 999%   0.000 MM12                                                
    0.000 999%   0.000 MM14                                                
    0.268 999% 3.6E-04 MM17                                                
    0.000 999%   0.000 Lip13a+Lip13b                                       
    0.000 999%   0.000 MM14+Lip13a+Lip13b+MM12                             
    0.000 999%   0.000 MM09+Lip09                                          
 5.51E-02 999% 7.5E-05 MM20+Lip20                                          
   6 lines in following misc. output table
  FWHM = 0.076 ppm    S/N =   4                                            
  Data shift = 0.084 ppm                                                   
  Ph:  55 deg       9.5 deg/ppm                                            
  alphaB,S = 5.7E-01,   5.1E+01                                            
   14 spline knots.   Ns = 7(2)                                            
  (12) 5 infls.   ( 9) 3 extrs.                                            
  498 points on ppm-axis = NY
      4.000000     3.992357     3.984714     3.977070     3.969427     3.961784     3.954141     3.946497     3.938854     3.931211
      3.923568     3.915925     3.908281     3.900638     3.892995     3.885352     3.877708     3.870065     3.862422     3.854779
      3.847136     3.839492     3.831849     3.824206     3.816563     3.808919     3.801276     3.793633     3.785990     3.778347
      3.770703     3.763060     3.755417     3.747774     3.740130     3.732487     3.724844     3.717201     3.709558     3.701914
      3.694271     3.686628     3.678985     3.671341     3.663698     3.656055     3.648412     3.640769     3.633125     3.625482
      3.617839     3.610196     3.602552     3.594909     3.587266     3.579623     3.571980     3.564336     3.556693     3.549050
      3.541407     3.533763     3.526120     3.518477     3.510834     3.503191     3.495547     3.487904     3.480261     3.472618
      3.464974     3.457331     3.449688     3.442045     3.434402     3.426758     3.419115     3.411472     3.403829     3.396185
      3.388542     3.380899     3.373256     3.365613     3.357969     3.350326     3.342683     3.335040     3.327396     3.319753
      3.312110     3.304467     3.296824     3.289180     3.281537     3.273894     3.266251     3.258607     3.250964     3.243321
      3.235678     3.228034     3.220391     3.212748     3.205105     3.197462     3.189818     3.182175     3.174532     3.166889
      3.159245     3.151602     3.143959     3.136316     3.128673     3.121029     3.113386     3.105743     3.098100     3.090456
      3.082813     3.075170     3.067527     3.059884     3.052240     3.044597     3.036954     3.029311     3.021667     3.014024
      3.006381     2.998738     2.991095     2.983451     2.975808     2.968165     2.960522     2.952878     2.945235     2.937592
      2.929949     2.922306     2.914662     2.907019     2.899376     2.891733     2.884089     2.876446     2.868803     2.861160
      2.853517     2.845873     2.838230     2.830587     2.822944     2.815300     2.807657     2.800014     2.792371     2.784728
      2.777084     2.769441     2.761798     2.754155     2.746511     2.738868     2.731225     2.723582     2.715939     2.708295
      2.700652     2.693009     2.685366     2.677722     2.670079     2.662436     2.654793     2.647150     2.639506     2.631863
      2.624220     2.616577     2.608933     2.601290     2.593647     2.586004     2.578361     2.570717     2.563074     2.555431
      2.547788     2.540144     2.532501     2.524858     2.517215     2.509572     2.501928     2.494285     2.486642     2.478999
      2.471355     2.463712     2.456069     2.448426     2.440783     2.433139     2.425496     2.417853     2.410210     2.402566
      2.394923     2.387280     2.379637     2.371994     2.364350     2.356707     2.349064     2.341421     2.333777     2.326134
      2.318491     2.310848     2.303205     2.295561     2.287918     2.280275     2.272632     2.264988     2.257345     2.249702
      2.242059     2.234416     2.226772     2.219129     2.211486     2.203843     2.196199     2.188556     2.180913     2.173270
      2.165627     2.157983     2.150340     2.142697     2.135054     2.127410     2.119767     2.112124     2.104481     2.096838
      2.089194     2.081551     2.073908     2.066265     2.058621     2.050978     2.043335     2.035692     2.028049     2.020405
      2.012762     2.005119     1.997476     1.989833     1.982190     1.974546     1.966903     1.959260     1.951617     1.943974
      1.936331     1.928688     1.921045     1.913402     1.905759     1.898115     1.890472     1.882829     1.875186     1.867543
      1.859900     1.852257     1.844614     1.836971     1.829327     1.821684     1.814041     1.806398     1.798755     1.791112
      1.783469     1.775826     1.768183     1.760540     1.752896     1.745253     1.737610     1.729967     1.722324     1.714681
      1.707038     1.699395     1.691752     1.684108     1.676465     1.668822     1.661179     1.653536     1.645893     1.638250
      1.630607     1.622964     1.615321     1.607677     1.600034     1.592391     1.584748     1.577105     1.569462     1.561819
      1.554176     1.546533     1.538890     1.531246     1.523603     1.515960     1.508317     1.500674     1.493031     1.485388
      1.477745     1.470102     1.462458     1.454815     1.447172     1.439529     1.431886     1.424243     1.416600     1.408957
      1.401314     1.393671     1.386027     1.378384     1.370741     1.363098     1.355455     1.347812     1.340169     1.332526
      1.324883     1.317240     1.309596     1.301953     1.294310     1.286667     1.279024     1.271381     1.263738     1.256095
      1.248452     1.240808     1.233165     1.225522     1.217879     1.210236     1.202593     1.194950     1.187307     1.179664
      1.172021     1.164377     1.156734     1.149091     1.141448     1.133805     1.126162     1.118519     1.110876     1.103233
      1.095590     1.087946     1.080303     1.072660     1.065017     1.057374     1.049731     1.042088     1.034445     1.026802
      1.019158     1.011515     1.003872     0.996229     0.988586     0.980943     0.973300     0.965657     0.958014     0.950371
      0.942727     0.935084     0.927441     0.919798     0.912155     0.904512     0.896869     0.889226     0.881583     0.873940
      0.866296     0.858653     0.851010     0.843367     0.835724     0.828081     0.820438     0.812795     0.805152     0.797508
      0.789865     0.782222     0.774579     0.766936     0.759293     0.751650     0.744007     0.736364     0.728721     0.721077
      0.713434     0.705791     0.698148     0.690505     0.682862     0.675219     0.667576     0.659933     0.652290     0.644646
      0.637003     0.629360     0.621717     0.614074     0.606431     0.598788     0.591145     0.583502     0.575858     0.568215
      0.560572     0.552929     0.545286     0.537643     0.530000     0.522357     0.514714     0.507071     0.499427     0.491784
      0.484141     0.476498     0.468855     0.461212     0.453569     0.445925     0.438282     0.430639     0.422996     0.415353
      0.407710     0.400067     0.392424     0.384780     0.377137     0.369494     0.361851     0.354208     0.346565     0.338922
      0.331278     0.323635     0.315992     0.308349     0.300706     0.293063     0.285420     0.277777     0.270133     0.262490
      0.254847     0.247204     0.239561     0.231918     0.224275     0.216631     0.208988     0.201345
 NY phased data points follow
   6.81579E+01  6.91214E+01  6.66468E+01  6.68944E+01  6.95234E+01  6.88686E+01  6.73001E+01  6.84866E+01  7.00489E+01  6.96144E+01
   6.88744E+01  6.97191E+01  6.59996E+01  6.21174E+01  6.37377E+01  6.27153E+01  6.32830E+01  6.03366E+01  5.76683E+01  5.67181E+01
   5.60006E+01  5.91339E+01  5.62479E+01  5.45578E+01  5.59753E+01  5.49576E+01  5.52702E+01  5.40361E+01  5.41265E+01  5.32885E+01
   5.47454E+01  5.10490E+01  5.41123E+01  5.32447E+01  5.28107E+01  5.30200E+01  4.97976E+01  5.05538E+01  4.93985E+01  4.81169E+01
   5.25843E+01  4.94383E+01  4.78396E+01  4.56307E+01  5.02255E+01  4.64165E+01  4.78655E+01  4.64727E+01  4.60948E+01  4.58255E+01
   4.57020E+01  4.53004E+01  4.33544E+01  3.84229E+01  3.99490E+01  4.42742E+01  3.92188E+01  4.09536E+01  4.15443E+01  3.76986E+01
   3.74783E+01  3.48625E+01  3.83928E+01  3.38924E+01  3.44467E+01  3.40408E+01  3.08754E+01  3.60557E+01  3.20324E+01  3.33832E+01
   3.33172E+01  3.47597E+01  2.95292E+01  3.25014E+01  3.04792E+01  3.14173E+01  2.94448E+01  2.99644E+01  2.95634E+01  2.86447E+01
   3.10732E+01  2.86416E+01  2.92118E+01  2.95838E+01  3.09807E+01  2.94522E+01  2.77645E+01  2.56084E+01  2.70844E+01  2.83812E+01
   3.05309E+01  3.24256E+01  3.01968E+01  2.76188E+01  2.93809E+01  2.91713E+01  2.85030E+01  2.46134E+01  2.98588E+01  2.95503E+01
   3.05062E+01  3.05746E+01  3.14331E+01  3.12629E+01  2.67884E+01  2.93672E+01  2.76130E+01  2.75867E+01  2.64543E+01  2.43960E+01
   2.49380E+01  2.32744E+01  2.61598E+01  2.78019E+01  2.71699E+01  2.90309E+01  2.99223E+01  3.15659E+01  3.19139E+01  2.82812E+01
   2.83835E+01  2.58183E+01  3.08496E+01  2.83267E+01  3.20604E+01  3.61882E+01  3.10801E+01  3.41061E+01  3.35830E+01  3.12905E+01
   3.17884E+01  3.02152E+01  2.68043E+01  2.50147E+01  2.95201E+01  2.62025E+01  2.56480E+01  2.35694E+01  2.53851E+01  2.38390E+01
   2.44263E+01  2.41660E+01  2.43531E+01  2.24511E+01  2.41433E+01  2.40720E+01  1.87593E+01  2.26278E+01  2.26124E+01  2.09389E+01
   1.99061E+01  2.31250E+01  2.23358E+01  2.05840E+01  2.10169E+01  2.07894E+01  2.09718E+01  2.00663E+01  2.18937E+01  1.90362E+01
   1.89291E+01  1.88604E+01  2.05660E+01  1.92717E+01  1.72486E+01  1.75090E+01  1.90048E+01  1.66261E+01  1.70906E+01  1.45368E+01
   1.60006E+01  1.78631E+01  1.28160E+01  1.35817E+01  1.17276E+01  1.19358E+01  1.54272E+01  1.16228E+01  1.61333E+01  1.49197E+01
   1.27601E+01  1.51425E+01  1.40291E+01  1.47630E+01  1.50139E+01  1.54999E+01  1.46416E+01  1.42902E+01  1.37717E+01  1.74946E+01
   1.65599E+01  1.85493E+01  1.64977E+01  1.62655E+01  1.71591E+01  1.88189E+01  1.54183E+01  1.50754E+01  1.54426E+01  1.46243E+01
   1.63140E+01  1.33032E+01  1.28693E+01  1.44654E+01  1.78299E+01  1.82028E+01  1.63777E+01  1.35382E+01  1.42047E+01  1.57266E+01
   1.47350E+01  1.46715E+01  1.60487E+01  1.29823E+01  1.47350E+01  1.84562E+01  1.79519E+01  1.78543E+01  1.74519E+01  1.37513E+01
   1.16186E+01  1.21387E+01  1.65086E+01  1.28693E+01  1.28080E+01  1.51245E+01  1.44705E+01  1.48589E+01  1.19745E+01  1.04078E+01
   1.35979E+01  1.01195E+01  1.48897E+01  1.57875E+01  1.25608E+01  1.48099E+01  1.63137E+01  1.19609E+01  1.17121E+01  1.48806E+01
   1.22443E+01  1.40223E+01  1.47847E+01  1.86451E+01  1.86421E+01  1.93114E+01  1.86019E+01  2.17332E+01  2.30614E+01  2.41711E+01
   2.48356E+01  2.14311E+01  1.78947E+01  1.90474E+01  2.01557E+01  2.40145E+01  2.71360E+01  2.57202E+01  3.02259E+01  3.08970E+01
   2.63343E+01  2.56162E+01  2.43552E+01  2.16310E+01  1.86051E+01  1.75662E+01  1.78680E+01  1.84032E+01  1.42644E+01  1.52550E+01
   1.34036E+01  1.27056E+01  1.29141E+01  1.32423E+01  1.58502E+01  1.28648E+01  1.05526E+01  1.26440E+01  1.32526E+01  1.10431E+01
   1.29874E+01  1.16047E+01  9.49623E+00  8.72943E+00  1.00318E+01  1.09148E+01  1.11592E+01  9.35890E+00  9.66973E+00  1.18189E+01
   1.16451E+01  9.49677E+00  1.06870E+01  9.45032E+00  1.10815E+01  9.77296E+00  7.85731E+00  1.08166E+01  1.16569E+01  1.00886E+01
   1.13205E+01  1.10046E+01  1.13844E+01  9.82858E+00  7.91990E+00  1.09452E+01  1.25357E+01  1.08297E+01  8.39494E+00  7.88957E+00
   8.04638E+00  7.09858E+00  8.61788E+00  6.53947E+00  9.20569E+00  8.93451E+00  6.51737E+00  1.12293E+01  6.39292E+00  9.65804E+00
   9.25585E+00  1.13559E+01  8.11773E+00  6.20614E+00  7.89794E+00  5.23489E+00  4.10424E+00  1.07469E+00  1.07734E+00  2.25201E+00
  -6.92687E-03  2.68657E+00  1.91114E+00  3.63132E+00  7.18521E+00  4.94326E+00  8.41670E+00  7.19199E+00  5.05584E+00  3.99055E+00
   2.30285E+00  3.30593E-01  2.99017E+00 -1.80742E+00  2.30383E-01 -1.83444E+00  1.37502E+00 -6.29109E-02  5.81451E-01 -5.88228E-01
  -1.68937E+00 -1.16495E+00 -2.47469E+00 -6.78031E-01 -1.67998E+00 -1.37402E+00  6.35844E-01 -9.75158E-01 -2.21945E+00  8.18749E-01
   7.82728E-01 -2.14859E+00  7.62034E-01  1.65222E+00 -2.91161E+00  7.50771E-01 -3.00150E+00 -1.45034E+00 -2.73211E+00  2.39856E+00
  -1.68703E+00  6.16058E-01 -2.95685E+00 -2.66390E+00 -2.52932E+00 -1.53256E+00 -1.55506E+00 -9.80802E-01 -1.21355E+00 -3.39736E+00
  -1.79831E+00 -4.33254E+00 -1.60743E-01  2.43076E+00 -6.35626E+00 -2.22398E+00 -2.56206E+00 -2.82154E+00 -3.39607E+00 -4.46167E+00
  -5.12003E+00 -2.74299E+00 -5.98883E+00 -1.20104E+00 -2.67203E+00 -2.23351E+00 -5.33632E+00 -3.00597E+00 -7.56600E+00 -4.25140E+00
  -5.26418E+00 -2.94837E+00 -4.63330E+00 -4.39479E+00 -3.23429E+00 -4.94750E+00 -6.21983E+00 -3.54874E+00 -3.95990E+00 -6.05793E+00
  -8.79055E+00 -7.96371E+00 -6.70228E+00 -3.74486E+00 -6.39632E+00 -3.99706E+00 -3.92116E+00 -5.31578E+00 -3.41595E+00 -1.87244E+00
  -5.35161E+00 -4.97921E+00 -3.71792E+00 -2.81053E+00 -1.39799E+00 -1.54713E+00 -7.20184E+00 -4.48776E+00 -4.15954E+00 -5.54902E+00
  -4.73688E+00 -2.46401E+00 -3.03789E+00 -9.31519E-01 -5.58331E+00 -4.32515E+00 -8.42127E+00 -5.89468E+00 -6.60282E+00 -5.14217E+00
  -5.34589E+00 -3.32493E+00 -5.76307E+00 -6.90888E+00 -2.81988E+00 -5.39960E+00 -6.00877E+00 -3.67705E+00 -3.28849E+00 -1.92798E+00
  -6.06754E+00 -5.94687E+00 -5.26934E+00 -6.40602E+00 -4.30939E+00 -7.98292E+00 -4.72580E+00 -6.25859E+00 -4.31599E+00 -4.93783E+00
  -5.15660E+00 -7.94944E+00 -1.66976E+00 -4.36042E+00 -4.46842E+00 -6.75998E+00 -7.18276E+00 -2.68115E+00 -4.51172E+00 -5.14702E+00
  -3.83787E+00 -8.43095E+00 -5.27970E+00 -2.71900E+00 -4.49963E+00 -8.25933E+00 -3.88051E+00 -7.89816E+00 -4.89358E+00 -7.06509E+00
  -6.75444E+00 -5.24592E+00 -7.10244E+00 -5.55593E+00 -2.37863E+00 -7.17260E+00 -6.20093E+00 -7.57205E+00 -5.39290E+00 -4.70508E+00
  -4.24984E+00 -3.11942E+00 -5.59372E+00 -4.55215E+00 -9.03894E+00 -5.95417E+00 -4.67937E+00 -7.08808E+00
 NY points of the fit to the data follow
   6.80381E+01  6.67652E+01  6.66354E+01  6.62617E+01  6.67077E+01  6.69893E+01  6.80262E+01  6.80453E+01  6.91079E+01  6.77597E+01
   6.80907E+01  6.59721E+01  6.53550E+01  6.31609E+01  6.20026E+01  6.07508E+01  6.05286E+01  5.95624E+01  5.96324E+01  5.91120E+01
   5.90832E+01  5.85840E+01  5.79956E+01  5.73736E+01  5.67339E+01  5.55985E+01  5.52112E+01  5.45540E+01  5.49062E+01  5.42344E+01
   5.43327E+01  5.36688E+01  5.33692E+01  5.27833E+01  5.21842E+01  5.15016E+01  5.08765E+01  4.98963E+01  4.91410E+01  4.81910E+01
   4.77590E+01  4.71092E+01  4.69939E+01  4.66655E+01  4.66067E+01  4.62771E+01  4.57816E+01  4.53351E+01  4.48063E+01  4.40221E+01
   4.32694E+01  4.24219E+01  4.18013E+01  4.11956E+01  4.07596E+01  4.04247E+01  4.00901E+01  3.98710E+01  3.95884E+01  3.92226E+01
   3.88612E+01  3.83180E+01  3.78216E+01  3.71696E+01  3.66588E+01  3.62407E+01  3.58976E+01  3.55944E+01  3.53164E+01  3.50035E+01
   3.47431E+01  3.43616E+01  3.40286E+01  3.35356E+01  3.31185E+01  3.25551E+01  3.21259E+01  3.16561E+01  3.13255E+01  3.09820E+01
   3.07068E+01  3.03586E+01  3.00760E+01  2.96173E+01  2.92656E+01  2.87360E+01  2.84017E+01  2.79884E+01  2.80648E+01  2.88199E+01
   2.89666E+01  2.98025E+01  2.95645E+01  2.97139E+01  2.91680E+01  2.89153E+01  2.85266E+01  2.89702E+01  2.87878E+01  2.99430E+01
   2.96725E+01  3.09127E+01  3.02007E+01  3.05891E+01  2.95280E+01  2.91299E+01  2.80085E+01  2.72929E+01  2.64648E+01  2.60787E+01
   2.55043E+01  2.53131E+01  2.54183E+01  2.74322E+01  2.82015E+01  2.98435E+01  3.01788E+01  3.00938E+01  2.97504E+01  2.87420E+01
   2.87618E+01  2.94950E+01  3.02487E+01  3.19722E+01  3.29778E+01  3.44326E+01  3.50321E+01  3.46091E+01  3.44681E+01  3.25212E+01
   3.17911E+01  2.92959E+01  2.84224E+01  2.67433E+01  2.60830E+01  2.48477E+01  2.45204E+01  2.40059E+01  2.40431E+01  2.37293E+01
   2.37952E+01  2.31071E+01  2.28668E+01  2.15290E+01  2.12026E+01  2.08195E+01  2.06478E+01  2.02741E+01  2.00664E+01  1.96928E+01
   1.95636E+01  1.94192E+01  1.93577E+01  1.92499E+01  1.91462E+01  1.89255E+01  1.87295E+01  1.84569E+01  1.82850E+01  1.80882E+01
   1.79544E+01  1.77882E+01  1.75581E+01  1.74424E+01  1.71985E+01  1.71000E+01  1.68899E+01  1.67007E+01  1.65419E+01  1.63202E+01
   1.62092E+01  1.59653E+01  1.58354E+01  1.55417E+01  1.55328E+01  1.53423E+01  1.55614E+01  1.55346E+01  1.58532E+01  1.57247E+01
   1.59204E+01  1.56211E+01  1.57440E+01  1.54229E+01  1.55123E+01  1.54975E+01  1.57403E+01  1.59849E+01  1.62785E+01  1.65803E+01
   1.67962E+01  1.68625E+01  1.67983E+01  1.66502E+01  1.63219E+01  1.62529E+01  1.58181E+01  1.60013E+01  1.56879E+01  1.59023E+01
   1.58912E+01  1.61679E+01  1.66010E+01  1.67019E+01  1.68078E+01  1.66141E+01  1.61824E+01  1.57425E+01  1.49692E+01  1.45888E+01
   1.44152E+01  1.44506E+01  1.48539E+01  1.51496E+01  1.55915E+01  1.56012E+01  1.53474E+01  1.48432E+01  1.41682E+01  1.36643E+01
   1.31336E+01  1.32003E+01  1.32744E+01  1.38884E+01  1.41763E+01  1.45902E+01  1.46709E+01  1.46164E+01  1.43694E+01  1.40564E+01
   1.38801E+01  1.39048E+01  1.39940E+01  1.42359E+01  1.45470E+01  1.46001E+01  1.46535E+01  1.42293E+01  1.40928E+01  1.36283E+01
   1.36041E+01  1.35103E+01  1.43847E+01  1.45450E+01  1.55992E+01  1.59985E+01  1.87162E+01  1.94300E+01  2.12888E+01  2.15814E+01
   2.19741E+01  2.18477E+01  2.18233E+01  2.18212E+01  2.34675E+01  2.39513E+01  2.63333E+01  2.68337E+01  2.83737E+01  2.82675E+01
   2.73016E+01  2.63880E+01  2.39934E+01  2.27313E+01  2.00799E+01  1.90825E+01  1.76862E+01  1.70745E+01  1.60565E+01  1.56209E+01
   1.51430E+01  1.48246E+01  1.43278E+01  1.41095E+01  1.35723E+01  1.31232E+01  1.19104E+01  1.14947E+01  1.13007E+01  1.11374E+01
   1.10032E+01  1.08779E+01  1.07890E+01  1.06686E+01  1.05873E+01  1.04767E+01  1.03998E+01  1.02787E+01  1.01935E+01  1.00668E+01
   9.96429E+00  9.83726E+00  9.73386E+00  9.61154E+00  9.50608E+00  9.38294E+00  9.27519E+00  9.15541E+00  9.04891E+00  8.93046E+00
   8.82471E+00  8.71284E+00  8.60871E+00  8.50413E+00  8.40712E+00  8.31081E+00  8.22452E+00  8.14586E+00  8.08097E+00  8.03854E+00
   8.03667E+00  8.10869E+00  8.36235E+00  8.75926E+00  8.35824E+00  8.39134E+00  7.47289E+00  7.13831E+00  6.27960E+00  5.91789E+00
   5.44579E+00  6.22344E+00  6.08624E+00  7.14359E+00  6.60286E+00  6.95136E+00  5.56304E+00  4.98310E+00  3.38942E+00  3.03557E+00
   2.13228E+00  2.52851E+00  2.59703E+00  3.59189E+00  4.03134E+00  4.59926E+00  4.91827E+00  4.93653E+00  4.81774E+00  4.36468E+00
   3.88963E+00  3.45671E+00  3.00682E+00  2.54548E+00  2.44857E+00  2.35295E+00  2.25219E+00  2.16866E+00  2.08944E+00  1.95188E+00
   1.82816E+00  1.38259E+00  1.06370E+00  8.21788E-01  6.13154E-01  4.23470E-01  2.46485E-01  7.89318E-02 -8.11084E-02 -2.34840E-01
  -3.83072E-01 -5.26353E-01 -6.65068E-01 -7.99543E-01 -9.30081E-01 -1.05694E+00 -1.18031E+00 -1.30038E+00 -1.41728E+00 -1.53114E+00
  -1.64207E+00 -1.75018E+00 -1.85555E+00 -1.95826E+00 -2.05837E+00 -2.15596E+00 -2.25110E+00 -2.34384E+00 -2.43424E+00 -2.52234E+00
  -2.60819E+00 -2.69185E+00 -2.77336E+00 -2.85277E+00 -2.93011E+00 -3.00543E+00 -3.07875E+00 -3.15014E+00 -3.21963E+00 -3.28726E+00
  -3.35305E+00 -3.41705E+00 -3.47928E+00 -3.53980E+00 -3.59863E+00 -3.65582E+00 -3.71138E+00 -3.76535E+00 -3.81777E+00 -3.86869E+00
  -3.91812E+00 -3.96611E+00 -4.01266E+00 -4.05784E+00 -4.10166E+00 -4.14416E+00 -4.18539E+00 -4.22535E+00 -4.26408E+00 -4.30161E+00
  -4.33799E+00 -4.37324E+00 -4.40738E+00 -4.44044E+00 -4.47244E+00 -4.50343E+00 -4.53344E+00 -4.56249E+00 -4.59060E+00 -4.61781E+00
  -4.64415E+00 -4.66964E+00 -4.69433E+00 -4.71823E+00 -4.74136E+00 -4.76376E+00 -4.78547E+00 -4.80651E+00 -4.82690E+00 -4.84669E+00
  -4.86587E+00 -4.88450E+00 -4.90261E+00 -4.92021E+00 -4.93735E+00 -4.95404E+00 -4.97030E+00 -4.98618E+00 -5.00170E+00 -5.01690E+00
  -5.03179E+00 -5.04640E+00 -5.06075E+00 -5.07489E+00 -5.08885E+00 -5.10264E+00 -5.11630E+00 -5.12984E+00 -5.14330E+00 -5.15671E+00
  -5.17011E+00 -5.18351E+00 -5.19693E+00 -5.21040E+00 -5.22392E+00 -5.23750E+00 -5.25113E+00 -5.26479E+00 -5.27849E+00 -5.29223E+00
  -5.30602E+00 -5.31984E+00 -5.33369E+00 -5.34756E+00 -5.36145E+00 -5.37537E+00 -5.38932E+00 -5.40328E+00 -5.41726E+00 -5.43124E+00
  -5.44523E+00 -5.45922E+00 -5.47322E+00 -5.48722E+00 -5.50120E+00 -5.51517E+00 -5.52913E+00 -5.54306E+00 -5.55698E+00 -5.57087E+00
  -5.58472E+00 -5.59853E+00 -5.61229E+00 -5.62600E+00 -5.63966E+00 -5.65325E+00 -5.66675E+00 -5.68017E+00 -5.69350E+00 -5.70672E+00
  -5.71981E+00 -5.73277E+00 -5.74556E+00 -5.75817E+00 -5.77058E+00 -5.78275E+00 -5.79464E+00 -5.80620E+00
 NY background values follow
     6.288E+01    6.243E+01    6.197E+01    6.151E+01    6.105E+01    6.060E+01    6.014E+01    5.968E+01    5.922E+01    5.877E+01
     5.831E+01    5.785E+01    5.739E+01    5.694E+01    5.648E+01    5.602E+01    5.557E+01    5.511E+01    5.466E+01    5.420E+01
     5.375E+01    5.330E+01    5.285E+01    5.240E+01    5.195E+01    5.150E+01    5.105E+01    5.060E+01    5.016E+01    4.972E+01
     4.927E+01    4.883E+01    4.839E+01    4.795E+01    4.752E+01    4.708E+01    4.665E+01    4.622E+01    4.579E+01    4.536E+01
     4.494E+01    4.452E+01    4.409E+01    4.368E+01    4.326E+01    4.285E+01    4.243E+01    4.202E+01    4.162E+01    4.121E+01
     4.081E+01    4.041E+01    4.002E+01    3.962E+01    3.923E+01    3.885E+01    3.846E+01    3.808E+01    3.770E+01    3.733E+01
     3.696E+01    3.659E+01    3.622E+01    3.586E+01    3.550E+01    3.515E+01    3.480E+01    3.445E+01    3.411E+01    3.377E+01
     3.344E+01    3.311E+01    3.278E+01    3.246E+01    3.214E+01    3.182E+01    3.151E+01    3.121E+01    3.091E+01    3.061E+01
     3.032E+01    3.003E+01    2.975E+01    2.947E+01    2.920E+01    2.894E+01    2.867E+01    2.842E+01    2.816E+01    2.792E+01
     2.767E+01    2.744E+01    2.721E+01    2.698E+01    2.676E+01    2.654E+01    2.633E+01    2.613E+01    2.593E+01    2.573E+01
     2.554E+01    2.535E+01    2.516E+01    2.498E+01    2.481E+01    2.464E+01    2.447E+01    2.430E+01    2.414E+01    2.398E+01
     2.383E+01    2.368E+01    2.353E+01    2.339E+01    2.325E+01    2.311E+01    2.297E+01    2.284E+01    2.271E+01    2.258E+01
     2.245E+01    2.232E+01    2.220E+01    2.208E+01    2.196E+01    2.185E+01    2.173E+01    2.162E+01    2.150E+01    2.139E+01
     2.128E+01    2.117E+01    2.107E+01    2.096E+01    2.085E+01    2.075E+01    2.064E+01    2.054E+01    2.043E+01    2.033E+01
     2.022E+01    2.012E+01    2.002E+01    1.992E+01    1.982E+01    1.971E+01    1.961E+01    1.951E+01    1.942E+01    1.932E+01
     1.922E+01    1.912E+01    1.903E+01    1.893E+01    1.883E+01    1.874E+01    1.865E+01    1.855E+01    1.846E+01    1.837E+01
     1.828E+01    1.819E+01    1.810E+01    1.801E+01    1.792E+01    1.783E+01    1.775E+01    1.766E+01    1.758E+01    1.749E+01
     1.741E+01    1.733E+01    1.724E+01    1.716E+01    1.708E+01    1.701E+01    1.693E+01    1.685E+01    1.678E+01    1.670E+01
     1.663E+01    1.655E+01    1.648E+01    1.641E+01    1.634E+01    1.627E+01    1.620E+01    1.614E+01    1.607E+01    1.600E+01
     1.594E+01    1.588E+01    1.581E+01    1.575E+01    1.569E+01    1.563E+01    1.557E+01    1.551E+01    1.545E+01    1.539E+01
     1.534E+01    1.528E+01    1.522E+01    1.517E+01    1.511E+01    1.506E+01    1.500E+01    1.495E+01    1.490E+01    1.485E+01
     1.480E+01    1.474E+01    1.469E+01    1.464E+01    1.459E+01    1.454E+01    1.450E+01    1.445E+01    1.440E+01    1.435E+01
     1.430E+01    1.426E+01    1.421E+01    1.416E+01    1.412E+01    1.407E+01    1.402E+01    1.398E+01    1.393E+01    1.389E+01
     1.384E+01    1.379E+01    1.375E+01    1.370E+01    1.366E+01    1.361E+01    1.356E+01    1.352E+01    1.347E+01    1.342E+01
     1.338E+01    1.333E+01    1.328E+01    1.323E+01    1.318E+01    1.313E+01    1.308E+01    1.303E+01    1.298E+01    1.292E+01
     1.287E+01    1.282E+01    1.276E+01    1.271E+01    1.265E+01    1.259E+01    1.253E+01    1.247E+01    1.241E+01    1.235E+01
     1.228E+01    1.222E+01    1.215E+01    1.209E+01    1.202E+01    1.195E+01    1.188E+01    1.180E+01    1.173E+01    1.165E+01
     1.157E+01    1.149E+01    1.141E+01    1.133E+01    1.124E+01    1.116E+01    1.107E+01    1.098E+01    1.089E+01    1.080E+01
     1.070E+01    1.061E+01    1.051E+01    1.041E+01    1.031E+01    1.020E+01    1.010E+01    9.994E+00    9.886E+00    9.777E+00
     9.666E+00    9.553E+00    9.439E+00    9.324E+00    9.207E+00    9.088E+00    8.968E+00    8.846E+00    8.723E+00    8.598E+00
     8.471E+00    8.344E+00    8.214E+00    8.083E+00    7.951E+00    7.817E+00    7.682E+00    7.545E+00    7.406E+00    7.267E+00
     7.125E+00    6.983E+00    6.838E+00    6.693E+00    6.546E+00    6.397E+00    6.247E+00    6.096E+00    5.944E+00    5.790E+00
     5.635E+00    5.478E+00    5.321E+00    5.163E+00    5.004E+00    4.845E+00    4.685E+00    4.524E+00    4.363E+00    4.201E+00
     4.039E+00    3.877E+00    3.715E+00    3.553E+00    3.391E+00    3.229E+00    3.067E+00    2.906E+00    2.745E+00    2.584E+00
     2.425E+00    2.266E+00    2.107E+00    1.950E+00    1.793E+00    1.638E+00    1.484E+00    1.331E+00    1.179E+00    1.028E+00
     8.795E-01    7.322E-01    5.866E-01    4.427E-01    3.007E-01    1.606E-01    2.247E-02   -1.135E-01   -2.473E-01   -3.788E-01
    -5.079E-01   -6.346E-01   -7.587E-01   -8.803E-01   -9.993E-01   -1.116E+00   -1.230E+00   -1.342E+00   -1.451E+00   -1.557E+00
    -1.662E+00   -1.764E+00   -1.864E+00   -1.961E+00   -2.057E+00   -2.150E+00   -2.241E+00   -2.330E+00   -2.416E+00   -2.501E+00
    -2.584E+00   -2.664E+00   -2.743E+00   -2.819E+00   -2.894E+00   -2.967E+00   -3.038E+00   -3.107E+00   -3.174E+00   -3.240E+00
    -3.304E+00   -3.366E+00   -3.426E+00   -3.485E+00   -3.542E+00   -3.597E+00   -3.651E+00   -3.704E+00   -3.755E+00   -3.804E+00
    -3.852E+00   -3.899E+00   -3.944E+00   -3.988E+00   -4.031E+00   -4.072E+00   -4.112E+00   -4.151E+00   -4.189E+00   -4.225E+00
    -4.261E+00   -4.295E+00   -4.328E+00   -4.360E+00   -4.391E+00   -4.422E+00   -4.451E+00   -4.479E+00   -4.506E+00   -4.533E+00
    -4.558E+00   -4.583E+00   -4.607E+00   -4.630E+00   -4.653E+00   -4.674E+00   -4.695E+00   -4.716E+00   -4.736E+00   -4.755E+00
    -4.773E+00   -4.791E+00   -4.809E+00   -4.826E+00   -4.843E+00   -4.859E+00   -4.874E+00   -4.890E+00   -4.905E+00   -4.920E+00
    -4.934E+00   -4.948E+00   -4.962E+00   -4.976E+00   -4.989E+00   -5.003E+00   -5.016E+00   -5.029E+00   -5.042E+00   -5.055E+00
    -5.069E+00   -5.082E+00   -5.095E+00   -5.108E+00   -5.121E+00   -5.135E+00   -5.148E+00   -5.161E+00   -5.175E+00   -5.189E+00
    -5.202E+00   -5.216E+00   -5.230E+00   -5.243E+00   -5.257E+00   -5.271E+00   -5.285E+00   -5.299E+00   -5.313E+00   -5.327E+00
    -5.341E+00   -5.355E+00   -5.369E+00   -5.383E+00   -5.397E+00   -5.411E+00   -5.425E+00   -5.440E+00   -5.454E+00   -5.468E+00
    -5.482E+00   -5.497E+00   -5.511E+00   -5.525E+00   -5.539E+00   -5.554E+00   -5.568E+00   -5.582E+00   -5.596E+00   -5.611E+00
    -5.625E+00   -5.639E+00   -5.653E+00   -5.667E+00   -5.682E+00   -5.696E+00   -5.710E+00   -5.724E+00
 Ala      Conc. = 5.41E+02
