 LCModel (Version 6.3-1L) Copyright: S.W. Provencher.          Ref.: Magn. Reson. Med. 30:672-679 (1993).                
 Slice#3 Row#8 Col#4  K_02_press_1_raw_act
 36 lines in following concentration table = NCONC+1
    Conc.  %SD /Cr+PCr  Metabolite                                         
   49.318 257% 2.2E-02 Ala                                                 
    0.000 999%   0.000 Asp                                                 
  213.809 126% 9.4E-02 Cr                                                  
 2.06E+03  14%   0.906 PCr                                                 
    0.000 999%   0.000 GABA                                                
    0.000 999%   0.000 Glc                                                 
   68.878 401% 3.0E-02 Gln                                                 
 1.84E+03  17%   0.809 Glu                                                 
  622.627   4%   0.274 GPC                                                 
    0.000 999%   0.000 PCh                                                 
  500.793  16%   0.220 GSH                                                 
  128.139 233% 5.6E-02 Ins                                                 
    0.000 999%   0.000 Lac                                                 
 2.62E+03   7%   1.151 NAA                                                 
  842.595  22%   0.370 NAAG                                                
   32.309  99% 1.4E-02 Scyllo                                              
    0.000 999%   0.000 Tau                                                 
    0.000 999%   0.000 -CrCH2                                              
  622.627   4%   0.274 GPC+PCh                                             
 3.46E+03   3%   1.521 NAA+NAAG                                            
 2.28E+03   3%   1.000 Cr+PCr                                              
 1.91E+03  25%   0.839 Glu+Gln                                             
    0.000 999%   0.000 Lip13a                                              
    0.000 999%   0.000 Lip13b                                              
    0.000 999%   0.000 Lip09                                               
 1.06E+03  19%   0.464 MM09                                                
 9.68E-03 999% 4.3E-06 Lip20                                               
 1.97E+03  17%   0.864 MM20                                                
  296.270  29%   0.130 MM12                                                
  554.967  43%   0.244 MM14                                                
  581.770  27%   0.256 MM17                                                
    0.000 999%   0.000 Lip13a+Lip13b                                       
  851.236  34%   0.374 MM14+Lip13a+Lip13b+MM12                             
 1.06E+03  19%   0.464 MM09+Lip09                                          
 1.97E+03  17%   0.864 MM20+Lip20                                          
   6 lines in following misc. output table
  FWHM = 0.054 ppm    S/N =  14                                            
  Data shift = 0.015 ppm                                                   
  Ph: -24 deg     -11.9 deg/ppm                                            
  alphaB,S = 4.1E-01,   1.0E+02                                            
   14 spline knots.   Ns = 8(1)                                            
  (10) 3 infls.   ( 5) 1 extrs.                                            
  498 points on ppm-axis = NY
      4.000000     3.992357     3.984714     3.977070     3.969427     3.961784     3.954141     3.946497     3.938854     3.931211
      3.923568     3.915925     3.908281     3.900638     3.892995     3.885352     3.877708     3.870065     3.862422     3.854779
      3.847136     3.839492     3.831849     3.824206     3.816563     3.808919     3.801276     3.793633     3.785990     3.778347
      3.770703     3.763060     3.755417     3.747774     3.740130     3.732487     3.724844     3.717201     3.709558     3.701914
      3.694271     3.686628     3.678985     3.671341     3.663698     3.656055     3.648412     3.640769     3.633125     3.625482
      3.617839     3.610196     3.602552     3.594909     3.587266     3.579623     3.571980     3.564336     3.556693     3.549050
      3.541407     3.533763     3.526120     3.518477     3.510834     3.503191     3.495547     3.487904     3.480261     3.472618
      3.464974     3.457331     3.449688     3.442045     3.434402     3.426758     3.419115     3.411472     3.403829     3.396185
      3.388542     3.380899     3.373256     3.365613     3.357969     3.350326     3.342683     3.335040     3.327396     3.319753
      3.312110     3.304467     3.296824     3.289180     3.281537     3.273894     3.266251     3.258607     3.250964     3.243321
      3.235678     3.228034     3.220391     3.212748     3.205105     3.197462     3.189818     3.182175     3.174532     3.166889
      3.159245     3.151602     3.143959     3.136316     3.128673     3.121029     3.113386     3.105743     3.098100     3.090456
      3.082813     3.075170     3.067527     3.059884     3.052240     3.044597     3.036954     3.029311     3.021667     3.014024
      3.006381     2.998738     2.991095     2.983451     2.975808     2.968165     2.960522     2.952878     2.945235     2.937592
      2.929949     2.922306     2.914662     2.907019     2.899376     2.891733     2.884089     2.876446     2.868803     2.861160
      2.853517     2.845873     2.838230     2.830587     2.822944     2.815300     2.807657     2.800014     2.792371     2.784728
      2.777084     2.769441     2.761798     2.754155     2.746511     2.738868     2.731225     2.723582     2.715939     2.708295
      2.700652     2.693009     2.685366     2.677722     2.670079     2.662436     2.654793     2.647150     2.639506     2.631863
      2.624220     2.616577     2.608933     2.601290     2.593647     2.586004     2.578361     2.570717     2.563074     2.555431
      2.547788     2.540144     2.532501     2.524858     2.517215     2.509572     2.501928     2.494285     2.486642     2.478999
      2.471355     2.463712     2.456069     2.448426     2.440783     2.433139     2.425496     2.417853     2.410210     2.402566
      2.394923     2.387280     2.379637     2.371994     2.364350     2.356707     2.349064     2.341421     2.333777     2.326134
      2.318491     2.310848     2.303205     2.295561     2.287918     2.280275     2.272632     2.264988     2.257345     2.249702
      2.242059     2.234416     2.226772     2.219129     2.211486     2.203843     2.196199     2.188556     2.180913     2.173270
      2.165627     2.157983     2.150340     2.142697     2.135054     2.127410     2.119767     2.112124     2.104481     2.096838
      2.089194     2.081551     2.073908     2.066265     2.058621     2.050978     2.043335     2.035692     2.028049     2.020405
      2.012762     2.005119     1.997476     1.989833     1.982190     1.974546     1.966903     1.959260     1.951617     1.943974
      1.936331     1.928688     1.921045     1.913402     1.905759     1.898115     1.890472     1.882829     1.875186     1.867543
      1.859900     1.852257     1.844614     1.836971     1.829327     1.821684     1.814041     1.806398     1.798755     1.791112
      1.783469     1.775826     1.768183     1.760540     1.752896     1.745253     1.737610     1.729967     1.722324     1.714681
      1.707038     1.699395     1.691752     1.684108     1.676465     1.668822     1.661179     1.653536     1.645893     1.638250
      1.630607     1.622964     1.615321     1.607677     1.600034     1.592391     1.584748     1.577105     1.569462     1.561819
      1.554176     1.546533     1.538890     1.531246     1.523603     1.515960     1.508317     1.500674     1.493031     1.485388
      1.477745     1.470102     1.462458     1.454815     1.447172     1.439529     1.431886     1.424243     1.416600     1.408957
      1.401314     1.393671     1.386027     1.378384     1.370741     1.363098     1.355455     1.347812     1.340169     1.332526
      1.324883     1.317240     1.309596     1.301953     1.294310     1.286667     1.279024     1.271381     1.263738     1.256095
      1.248452     1.240808     1.233165     1.225522     1.217879     1.210236     1.202593     1.194950     1.187307     1.179664
      1.172021     1.164377     1.156734     1.149091     1.141448     1.133805     1.126162     1.118519     1.110876     1.103233
      1.095590     1.087946     1.080303     1.072660     1.065017     1.057374     1.049731     1.042088     1.034445     1.026802
      1.019158     1.011515     1.003872     0.996229     0.988586     0.980943     0.973300     0.965657     0.958014     0.950371
      0.942727     0.935084     0.927441     0.919798     0.912155     0.904512     0.896869     0.889226     0.881583     0.873940
      0.866296     0.858653     0.851010     0.843367     0.835724     0.828081     0.820438     0.812795     0.805152     0.797508
      0.789865     0.782222     0.774579     0.766936     0.759293     0.751650     0.744007     0.736364     0.728721     0.721077
      0.713434     0.705791     0.698148     0.690505     0.682862     0.675219     0.667576     0.659933     0.652290     0.644646
      0.637003     0.629360     0.621717     0.614074     0.606431     0.598788     0.591145     0.583502     0.575858     0.568215
      0.560572     0.552929     0.545286     0.537643     0.530000     0.522357     0.514714     0.507071     0.499427     0.491784
      0.484141     0.476498     0.468855     0.461212     0.453569     0.445925     0.438282     0.430639     0.422996     0.415353
      0.407710     0.400067     0.392424     0.384780     0.377137     0.369494     0.361851     0.354208     0.346565     0.338922
      0.331278     0.323635     0.315992     0.308349     0.300706     0.293063     0.285420     0.277777     0.270133     0.262490
      0.254847     0.247204     0.239561     0.231918     0.224275     0.216631     0.208988     0.201345
 NY phased data points follow
   4.97812E+01  5.76946E+01  5.96455E+01  5.87140E+01  6.71286E+01  7.21459E+01  7.68287E+01  8.23388E+01  9.09677E+01  9.07602E+01
   9.43537E+01  9.19414E+01  8.61818E+01  7.56175E+01  6.67706E+01  6.12888E+01  5.84477E+01  4.74837E+01  4.62354E+01  4.80750E+01
   4.45681E+01  4.23750E+01  4.86798E+01  4.58698E+01  4.57547E+01  4.51769E+01  4.56826E+01  4.85969E+01  4.48757E+01  4.87615E+01
   5.21911E+01  5.06272E+01  4.40468E+01  4.63200E+01  4.29523E+01  4.51239E+01  4.09038E+01  3.80439E+01  4.09171E+01  3.85063E+01
   3.54918E+01  3.96593E+01  3.83000E+01  3.88228E+01  3.67611E+01  4.24687E+01  4.29857E+01  4.55145E+01  4.40313E+01  3.93399E+01
   3.92792E+01  3.79467E+01  3.22740E+01  2.89125E+01  3.27599E+01  3.14042E+01  3.55217E+01  2.93563E+01  3.15235E+01  2.89058E+01
   3.03857E+01  2.56324E+01  2.09620E+01  2.29563E+01  2.14870E+01  2.21862E+01  2.09219E+01  1.60729E+01  1.70360E+01  2.05043E+01
   2.07038E+01  2.31571E+01  2.02775E+01  2.34223E+01  2.06908E+01  2.09132E+01  1.82642E+01  1.93333E+01  2.09302E+01  2.07639E+01
   1.68811E+01  2.20780E+01  1.68300E+01  2.32069E+01  2.14407E+01  2.08749E+01  2.32793E+01  2.03221E+01  2.29184E+01  1.99848E+01
   2.10344E+01  2.31566E+01  2.81066E+01  2.61163E+01  2.78033E+01  2.93494E+01  3.19784E+01  3.31179E+01  3.70897E+01  4.51706E+01
   5.52224E+01  6.43536E+01  6.84150E+01  6.81243E+01  6.79879E+01  5.75404E+01  5.10216E+01  4.22495E+01  4.25321E+01  3.31993E+01
   2.44532E+01  2.25637E+01  2.52128E+01  1.99240E+01  2.14457E+01  2.13595E+01  2.15372E+01  2.45404E+01  2.61160E+01  3.28252E+01
   3.55194E+01  3.69001E+01  4.10426E+01  5.16897E+01  5.57069E+01  7.10759E+01  7.85538E+01  8.04395E+01  7.35773E+01  6.44357E+01
   5.69054E+01  5.20237E+01  3.85205E+01  3.11188E+01  2.95288E+01  1.93405E+01  2.02842E+01  1.85160E+01  1.65561E+01  2.18317E+01
   1.99170E+01  1.49921E+01  1.40883E+01  1.80544E+01  1.26335E+01  1.33117E+01  1.70672E+01  1.51569E+01  1.23794E+01  1.02111E+01
   1.57853E+01  1.50977E+01  1.37845E+01  1.37505E+01  1.23314E+01  1.27206E+01  1.16599E+01  1.07546E+01  8.74084E+00  1.09505E+01
   9.70118E+00  9.75207E+00  6.04966E+00  3.11556E+00  1.39811E+01  1.01777E+01  7.04217E+00  5.77958E+00  6.50604E+00  1.47623E+00
  -3.20120E-01  4.05729E+00  3.10411E+00  2.35238E+00 -8.75762E-01 -1.96493E-01 -8.24875E+00  9.88893E-02 -3.25086E+00 -3.66185E+00
  -1.11361E+00 -4.05090E+00 -5.43706E+00  1.98439E-01 -5.34724E+00  9.42692E-01  6.09400E-01  5.01251E+00  7.47584E+00  1.40662E+01
   1.41821E+01  1.93442E+01  1.77065E+01  1.10979E+01  1.63272E+01  1.67339E+01  1.07308E+01  1.41395E+01  7.71843E+00  6.69450E+00
   8.59315E+00  7.25627E+00  1.37007E+01  7.99209E+00  1.21930E+01  7.43605E+00  6.22768E+00  6.34162E+00  1.18993E+01  7.06019E+00
   4.02453E+00  1.04888E+01  1.28739E+01  1.48984E+01  1.91564E+01  1.66569E+01  1.56151E+01  2.04542E+01  1.03989E+01  1.25238E+01
   1.22326E+01  4.66755E+00  4.83161E+00  7.75431E+00  1.15978E+01  9.92015E+00  1.17085E+01  2.01761E+01  2.11398E+01  1.90229E+01
   1.72769E+01  1.92975E+01  1.79156E+01  1.85531E+01  1.91185E+01  1.71440E+01  1.73569E+01  1.62692E+01  1.54841E+01  1.55957E+01
   1.57455E+01  1.33015E+01  1.60441E+01  1.41251E+01  1.81048E+01  2.53055E+01  2.31925E+01  2.24922E+01  3.39492E+01  3.12852E+01
   3.20566E+01  3.90023E+01  4.35444E+01  5.05954E+01  6.46785E+01  7.48760E+01  8.09419E+01  9.04116E+01  9.99622E+01  1.06390E+02
   1.18914E+02  1.05526E+02  8.41696E+01  6.56344E+01  5.00643E+01  3.78646E+01  2.80245E+01  2.04148E+01  1.40382E+01  1.78382E+01
   1.49838E+01  1.47713E+01  1.82433E+01  1.91355E+01  1.32563E+01  1.77350E+01  1.74086E+01  1.51142E+01  1.80484E+01  1.55977E+01
   1.47960E+01  1.27862E+01  2.00570E+01  1.45210E+01  1.32127E+01  9.79648E+00  6.47906E+00  1.21641E+01  1.33973E+01  1.06990E+01
   1.37565E+01  1.18896E+01  1.04453E+01  1.28608E+01  1.12720E+01  9.23601E+00  1.30458E+01  1.37186E+01  1.27454E+01  1.22784E+01
   7.09443E+00  1.41343E+01  8.05545E+00  1.16167E+01  1.22217E+01  8.66863E+00  1.31287E+01  1.19360E+01  1.12152E+01  1.33944E+01
   1.32319E+01  1.22159E+01  9.97557E+00  1.58115E+01  1.32543E+01  1.52860E+01  1.57023E+01  1.49817E+01  1.25288E+01  1.24895E+01
   1.19811E+01  1.44162E+01  1.38989E+01  1.09503E+01  9.45188E+00  1.33567E+01  1.23703E+01  8.38858E+00  8.59235E+00  6.65438E+00
   7.61069E+00  8.25664E+00  8.53796E+00  5.73130E+00  1.06119E+01  9.97983E+00  1.01862E+01  5.43209E+00  6.24553E+00  4.95904E+00
   5.89757E+00  2.79610E+00  3.54492E+00  6.67695E+00  9.37578E+00  8.84249E+00  8.16913E+00  1.59771E+00  3.27685E+00  6.20486E+00
   3.20569E+00  4.15674E+00  7.19665E+00  3.80969E+00  4.05333E+00  8.22426E+00  4.70023E+00  3.16425E+00  2.09000E+00  3.01617E+00
   5.33761E+00  7.75332E+00  8.28677E+00  7.31297E+00  6.86825E+00  5.20960E+00  5.82778E+00  4.84002E+00  3.14360E+00  5.40321E+00
   7.18718E+00  4.20854E+00  4.95270E+00  1.86920E+00  5.61055E+00  5.11456E+00  3.39807E+00  3.04460E+00  8.16646E+00  7.94979E+00
   3.10530E+00  5.07564E+00  7.08760E+00  4.68697E+00  4.85529E+00  1.99764E+00  2.70138E+00  3.41243E+00  6.02078E+00  8.92248E+00
   4.29656E+00  4.07580E+00  1.01725E+01  1.04822E+01  1.13845E+01  9.61824E+00  9.79712E+00  5.67171E+00  7.17462E+00  7.73540E+00
   7.05294E+00  9.93819E+00  7.82676E+00  1.04474E+01  6.33443E+00  1.06937E+01  1.26956E+01  1.02223E+01  7.64257E+00  9.38334E+00
   7.70900E+00  8.07691E+00  9.54022E+00  7.62612E+00  8.19434E+00  9.59523E+00  4.42194E+00  9.31061E+00  6.74515E+00  4.65195E+00
   5.81500E+00  7.39958E+00  7.21422E+00  8.58959E+00  1.71450E+00  4.85820E+00  4.49746E+00  3.02115E+00  5.15694E+00  5.81099E+00
   6.65834E+00  6.83013E+00  5.41228E+00  7.48794E+00  5.35686E+00  5.83646E+00  8.35277E+00  8.47742E+00  1.67254E+00  7.12822E+00
   2.26453E+00  7.14784E+00  3.59584E+00  8.21046E+00  7.28424E+00  6.51661E+00  3.97108E+00  5.01543E+00  4.41533E+00  5.68376E+00
   6.53015E+00  7.25227E+00  3.91655E+00  7.84458E+00  3.19828E+00  5.08762E+00  6.36198E+00  3.41015E+00  7.40016E+00  5.70427E+00
   2.95611E+00  9.54557E+00  5.68788E+00  6.15202E+00  6.09340E+00  1.00630E+01  5.79574E+00  3.45531E+00  3.63264E+00  3.05295E+00
   3.57882E+00  4.13010E+00  6.37509E+00  8.19313E+00  5.75366E+00  2.52368E+00  3.14356E+00  7.39687E+00  1.41045E-01  5.81037E+00
   2.48705E+00  4.71428E+00  8.86822E+00  4.99362E+00  6.13496E+00  5.31358E+00  4.24639E+00  4.40586E+00  9.08548E+00  5.17546E+00
   4.11336E+00  4.37852E+00  3.54502E+00  5.25981E+00  7.53094E+00  4.82647E+00  1.36487E+00  8.01378E+00
 NY points of the fit to the data follow
   5.08987E+01  5.43443E+01  5.79105E+01  6.09732E+01  6.44163E+01  6.89287E+01  7.49700E+01  8.21844E+01  8.88283E+01  9.23632E+01
   9.11612E+01  8.61553E+01  7.96420E+01  7.30234E+01  6.66821E+01  6.08461E+01  5.58639E+01  5.21124E+01  4.96240E+01  4.79898E+01
   4.66178E+01  4.56936E+01  4.56269E+01  4.56084E+01  4.54475E+01  4.55053E+01  4.59054E+01  4.66068E+01  4.76588E+01  4.90568E+01
   5.01569E+01  5.02977E+01  4.95782E+01  4.82627E+01  4.64922E+01  4.43359E+01  4.19631E+01  3.99161E+01  3.86694E+01  3.81296E+01
   3.79803E+01  3.80092E+01  3.81339E+01  3.81842E+01  3.80601E+01  3.77740E+01  3.73811E+01  3.68893E+01  3.63141E+01  3.57341E+01
   3.51553E+01  3.45098E+01  3.37855E+01  3.30396E+01  3.23226E+01  3.16320E+01  3.09548E+01  3.03061E+01  2.97187E+01  2.92026E+01
   2.87264E+01  2.82528E+01  2.77734E+01  2.73044E+01  2.68698E+01  2.64714E+01  2.61053E+01  2.57704E+01  2.54638E+01  2.51795E+01
   2.49099E+01  2.46454E+01  2.43749E+01  2.40910E+01  2.37970E+01  2.35038E+01  2.32210E+01  2.29653E+01  2.28050E+01  2.27183E+01
   2.25832E+01  2.24251E+01  2.23102E+01  2.22721E+01  2.23125E+01  2.23785E+01  2.23608E+01  2.21518E+01  2.17567E+01  2.13025E+01
   2.09085E+01  2.06219E+01  2.04971E+01  2.08265E+01  2.30172E+01  2.79888E+01  3.24620E+01  3.58651E+01  3.97722E+01  4.53820E+01
   5.31348E+01  6.21146E+01  6.95896E+01  7.21515E+01  6.83227E+01  6.02947E+01  5.14994E+01  4.34355E+01  3.60460E+01  2.94446E+01
   2.42516E+01  2.08898E+01  1.91419E+01  1.84093E+01  1.81069E+01  1.80221E+01  1.81819E+01  1.89232E+01  2.18772E+01  2.80665E+01
   3.36512E+01  3.79963E+01  4.30128E+01  5.01240E+01  5.98221E+01  7.09969E+01  8.02476E+01  8.33024E+01  7.85088E+01  6.86779E+01
   5.79804E+01  4.82690E+01  3.93632E+01  3.12059E+01  2.44186E+01  1.95479E+01  1.66683E+01  1.53369E+01  1.48880E+01  1.49210E+01
   1.51818E+01  1.54523E+01  1.55575E+01  1.54326E+01  1.51200E+01  1.46877E+01  1.41549E+01  1.35683E+01  1.30341E+01  1.25756E+01
   1.21816E+01  1.18365E+01  1.13833E+01  1.07781E+01  1.03043E+01  1.00688E+01  1.00548E+01  1.00720E+01  9.74033E+00  9.10434E+00
   8.42041E+00  7.95221E+00  7.80734E+00  7.85993E+00  7.80464E+00  7.41427E+00  6.72893E+00  5.90298E+00  5.04859E+00  4.46979E+00
   4.17642E+00  3.96672E+00  3.65499E+00  3.11074E+00  2.57343E+00  2.26670E+00  2.37068E+00  2.73363E+00  2.96739E+00  2.86455E+00
   2.82265E+00  3.09502E+00  3.71082E+00  4.49954E+00  5.27360E+00  5.99373E+00  6.87451E+00  8.18456E+00  9.87494E+00  1.14481E+01
   1.24480E+01  1.30177E+01  1.32093E+01  1.29536E+01  1.23774E+01  1.18041E+01  1.13278E+01  1.09579E+01  1.09127E+01  1.12430E+01
   1.18557E+01  1.25238E+01  1.30253E+01  1.33498E+01  1.32609E+01  1.25986E+01  1.17294E+01  1.08988E+01  1.04450E+01  9.97068E+00
   9.48970E+00  9.49734E+00  1.02799E+01  1.17165E+01  1.32331E+01  1.42655E+01  1.44797E+01  1.35509E+01  1.15281E+01  9.06255E+00
   6.63899E+00  4.72910E+00  3.97225E+00  4.72881E+00  6.86607E+00  9.67800E+00  1.23357E+01  1.45008E+01  1.61028E+01  1.70878E+01
   1.74218E+01  1.72875E+01  1.71061E+01  1.72165E+01  1.75679E+01  1.78615E+01  1.80488E+01  1.80338E+01  1.76335E+01  1.68588E+01
   1.60897E+01  1.56645E+01  1.57719E+01  1.65219E+01  1.78979E+01  1.96342E+01  2.13209E+01  2.31793E+01  2.60529E+01  2.86433E+01
   3.06231E+01  3.46962E+01  4.48715E+01  5.59223E+01  6.51948E+01  7.41483E+01  8.32849E+01  9.25164E+01  1.01838E+02  1.09336E+02
   1.10386E+02  1.01579E+02  8.56847E+01  6.89675E+01  5.46425E+01  4.24219E+01  3.18665E+01  2.35541E+01  1.81272E+01  1.53288E+01
   1.42569E+01  1.38939E+01  1.37675E+01  1.37236E+01  1.36596E+01  1.35051E+01  1.32516E+01  1.29426E+01  1.26450E+01  1.23811E+01
   1.21486E+01  1.19649E+01  1.18426E+01  1.17648E+01  1.17072E+01  1.16342E+01  1.15368E+01  1.14277E+01  1.13217E+01  1.12373E+01
   1.11927E+01  1.11922E+01  1.12370E+01  1.13051E+01  1.13715E+01  1.14314E+01  1.14862E+01  1.15347E+01  1.15823E+01  1.16438E+01
   1.17334E+01  1.18504E+01  1.19811E+01  1.21121E+01  1.22355E+01  1.23453E+01  1.24349E+01  1.24984E+01  1.25324E+01  1.25362E+01
   1.25114E+01  1.24594E+01  1.23816E+01  1.22796E+01  1.21558E+01  1.20148E+01  1.18622E+01  1.17054E+01  1.15553E+01  1.14221E+01
   1.12643E+01  1.10740E+01  1.08881E+01  1.07181E+01  1.05532E+01  1.03683E+01  1.01311E+01  9.85563E+00  9.56234E+00  9.26238E+00
   9.00116E+00  8.80105E+00  8.66266E+00  8.59626E+00  8.60638E+00  8.65937E+00  8.68527E+00  8.63025E+00  8.49841E+00  8.32414E+00
   8.12702E+00  7.91067E+00  7.68200E+00  7.45563E+00  7.24496E+00  7.05548E+00  6.88476E+00  6.72843E+00  6.58486E+00  6.45374E+00
   6.33498E+00  6.22822E+00  6.13273E+00  6.04766E+00  5.97228E+00  5.90586E+00  5.84739E+00  5.79550E+00  5.74863E+00  5.70543E+00
   5.66486E+00  5.62602E+00  5.58792E+00  5.54951E+00  5.50995E+00  5.46891E+00  5.42650E+00  5.38305E+00  5.33888E+00  5.29448E+00
   5.25068E+00  5.20880E+00  5.17039E+00  5.13696E+00  5.10992E+00  5.09072E+00  5.08109E+00  5.08294E+00  5.09815E+00  5.12835E+00
   5.17497E+00  5.23945E+00  5.32339E+00  5.42837E+00  5.55562E+00  5.70597E+00  5.87988E+00  6.07764E+00  6.29927E+00  6.54422E+00
   6.81111E+00  7.09765E+00  7.40081E+00  7.71694E+00  8.04164E+00  8.36960E+00  8.69458E+00  9.00967E+00  9.30775E+00  9.58174E+00
   9.82473E+00  1.00301E+01  1.01917E+01  1.03046E+01  1.03652E+01  1.03716E+01  1.03235E+01  1.02218E+01  1.00690E+01  9.86924E+00
   9.62799E+00  9.35180E+00  9.04773E+00  8.72306E+00  8.38510E+00  8.04111E+00  7.69797E+00  7.36182E+00  7.03777E+00  6.72985E+00
   6.44126E+00  6.17438E+00  5.93082E+00  5.71124E+00  5.51548E+00  5.34277E+00  5.19208E+00  5.06221E+00  4.95174E+00  4.85896E+00
   4.78203E+00  4.71918E+00  4.66889E+00  4.62980E+00  4.60060E+00  4.57993E+00  4.56651E+00  4.55930E+00  4.55755E+00  4.56061E+00
   4.56778E+00  4.57833E+00  4.59162E+00  4.60725E+00  4.62496E+00  4.64449E+00  4.66543E+00  4.68738E+00  4.71003E+00  4.73329E+00
   4.75710E+00  4.78127E+00  4.80554E+00  4.82965E+00  4.85357E+00  4.87738E+00  4.90114E+00  4.92475E+00  4.94804E+00  4.97092E+00
   4.99347E+00  5.01581E+00  5.03795E+00  5.05980E+00  5.08122E+00  5.10222E+00  5.12293E+00  5.14346E+00  5.16378E+00  5.18377E+00
   5.20336E+00  5.22264E+00  5.24175E+00  5.26077E+00  5.27961E+00  5.29817E+00  5.31645E+00  5.33459E+00  5.35272E+00  5.37084E+00
   5.38885E+00  5.40668E+00  5.42443E+00  5.44223E+00  5.46019E+00  5.47826E+00  5.49633E+00  5.51442E+00  5.53266E+00  5.55120E+00
   5.57008E+00  5.58923E+00  5.60858E+00  5.62822E+00  5.64834E+00  5.66907E+00  5.69040E+00  5.71227E+00
 NY background values follow
     4.855E+01    4.817E+01    4.780E+01    4.742E+01    4.704E+01    4.666E+01    4.628E+01    4.590E+01    4.552E+01    4.514E+01
     4.477E+01    4.439E+01    4.401E+01    4.363E+01    4.325E+01    4.287E+01    4.250E+01    4.212E+01    4.174E+01    4.137E+01
     4.099E+01    4.062E+01    4.025E+01    3.987E+01    3.950E+01    3.913E+01    3.876E+01    3.840E+01    3.803E+01    3.767E+01
     3.730E+01    3.694E+01    3.658E+01    3.622E+01    3.587E+01    3.551E+01    3.516E+01    3.481E+01    3.446E+01    3.411E+01
     3.376E+01    3.342E+01    3.308E+01    3.274E+01    3.241E+01    3.208E+01    3.175E+01    3.142E+01    3.109E+01    3.077E+01
     3.045E+01    3.013E+01    2.982E+01    2.951E+01    2.920E+01    2.889E+01    2.859E+01    2.828E+01    2.799E+01    2.769E+01
     2.740E+01    2.711E+01    2.682E+01    2.653E+01    2.625E+01    2.597E+01    2.570E+01    2.542E+01    2.515E+01    2.488E+01
     2.462E+01    2.436E+01    2.410E+01    2.384E+01    2.359E+01    2.333E+01    2.309E+01    2.284E+01    2.260E+01    2.236E+01
     2.212E+01    2.189E+01    2.166E+01    2.143E+01    2.120E+01    2.098E+01    2.076E+01    2.055E+01    2.033E+01    2.012E+01
     1.992E+01    1.971E+01    1.951E+01    1.931E+01    1.912E+01    1.893E+01    1.874E+01    1.855E+01    1.836E+01    1.818E+01
     1.800E+01    1.782E+01    1.765E+01    1.748E+01    1.731E+01    1.714E+01    1.697E+01    1.681E+01    1.665E+01    1.649E+01
     1.633E+01    1.617E+01    1.601E+01    1.586E+01    1.571E+01    1.556E+01    1.541E+01    1.526E+01    1.512E+01    1.497E+01
     1.483E+01    1.469E+01    1.454E+01    1.440E+01    1.426E+01    1.413E+01    1.399E+01    1.385E+01    1.372E+01    1.358E+01
     1.344E+01    1.331E+01    1.318E+01    1.304E+01    1.291E+01    1.278E+01    1.264E+01    1.251E+01    1.238E+01    1.225E+01
     1.211E+01    1.198E+01    1.185E+01    1.172E+01    1.159E+01    1.147E+01    1.134E+01    1.121E+01    1.109E+01    1.097E+01
     1.085E+01    1.072E+01    1.061E+01    1.049E+01    1.037E+01    1.026E+01    1.015E+01    1.004E+01    9.932E+00    9.827E+00
     9.725E+00    9.624E+00    9.526E+00    9.431E+00    9.338E+00    9.248E+00    9.161E+00    9.077E+00    8.996E+00    8.918E+00
     8.844E+00    8.772E+00    8.704E+00    8.640E+00    8.579E+00    8.522E+00    8.468E+00    8.418E+00    8.373E+00    8.331E+00
     8.294E+00    8.260E+00    8.231E+00    8.206E+00    8.186E+00    8.169E+00    8.155E+00    8.146E+00    8.140E+00    8.138E+00
     8.139E+00    8.143E+00    8.151E+00    8.161E+00    8.175E+00    8.191E+00    8.210E+00    8.231E+00    8.256E+00    8.282E+00
     8.311E+00    8.342E+00    8.375E+00    8.409E+00    8.446E+00    8.484E+00    8.524E+00    8.566E+00    8.609E+00    8.653E+00
     8.698E+00    8.745E+00    8.792E+00    8.840E+00    8.889E+00    8.939E+00    8.989E+00    9.039E+00    9.090E+00    9.141E+00
     9.192E+00    9.242E+00    9.293E+00    9.344E+00    9.394E+00    9.443E+00    9.492E+00    9.540E+00    9.588E+00    9.635E+00
     9.681E+00    9.726E+00    9.770E+00    9.813E+00    9.855E+00    9.896E+00    9.937E+00    9.976E+00    1.001E+01    1.005E+01
     1.009E+01    1.012E+01    1.015E+01    1.018E+01    1.021E+01    1.024E+01    1.027E+01    1.030E+01    1.032E+01    1.034E+01
     1.037E+01    1.038E+01    1.040E+01    1.042E+01    1.043E+01    1.045E+01    1.046E+01    1.047E+01    1.047E+01    1.048E+01
     1.048E+01    1.048E+01    1.048E+01    1.048E+01    1.047E+01    1.046E+01    1.045E+01    1.044E+01    1.043E+01    1.041E+01
     1.039E+01    1.037E+01    1.034E+01    1.032E+01    1.029E+01    1.026E+01    1.022E+01    1.019E+01    1.015E+01    1.011E+01
     1.007E+01    1.002E+01    9.975E+00    9.927E+00    9.876E+00    9.823E+00    9.769E+00    9.713E+00    9.655E+00    9.595E+00
     9.533E+00    9.470E+00    9.405E+00    9.338E+00    9.270E+00    9.201E+00    9.130E+00    9.058E+00    8.984E+00    8.909E+00
     8.832E+00    8.755E+00    8.676E+00    8.596E+00    8.515E+00    8.433E+00    8.349E+00    8.265E+00    8.180E+00    8.094E+00
     8.007E+00    7.919E+00    7.831E+00    7.741E+00    7.651E+00    7.561E+00    7.469E+00    7.377E+00    7.285E+00    7.192E+00
     7.099E+00    7.006E+00    6.912E+00    6.818E+00    6.724E+00    6.630E+00    6.536E+00    6.442E+00    6.348E+00    6.254E+00
     6.161E+00    6.068E+00    5.975E+00    5.883E+00    5.791E+00    5.700E+00    5.609E+00    5.520E+00    5.431E+00    5.343E+00
     5.255E+00    5.169E+00    5.084E+00    5.000E+00    4.917E+00    4.835E+00    4.755E+00    4.676E+00    4.598E+00    4.522E+00
     4.447E+00    4.374E+00    4.303E+00    4.233E+00    4.166E+00    4.100E+00    4.036E+00    3.974E+00    3.914E+00    3.856E+00
     3.801E+00    3.747E+00    3.696E+00    3.648E+00    3.601E+00    3.557E+00    3.515E+00    3.476E+00    3.439E+00    3.403E+00
     3.370E+00    3.339E+00    3.311E+00    3.284E+00    3.259E+00    3.237E+00    3.216E+00    3.197E+00    3.181E+00    3.166E+00
     3.153E+00    3.142E+00    3.133E+00    3.126E+00    3.120E+00    3.117E+00    3.115E+00    3.114E+00    3.116E+00    3.119E+00
     3.124E+00    3.130E+00    3.138E+00    3.148E+00    3.159E+00    3.172E+00    3.186E+00    3.202E+00    3.219E+00    3.237E+00
     3.257E+00    3.279E+00    3.301E+00    3.325E+00    3.351E+00    3.377E+00    3.405E+00    3.434E+00    3.465E+00    3.496E+00
     3.528E+00    3.562E+00    3.596E+00    3.632E+00    3.668E+00    3.706E+00    3.744E+00    3.782E+00    3.822E+00    3.862E+00
     3.903E+00    3.944E+00    3.986E+00    4.028E+00    4.071E+00    4.114E+00    4.158E+00    4.201E+00    4.245E+00    4.289E+00
     4.334E+00    4.378E+00    4.422E+00    4.467E+00    4.511E+00    4.555E+00    4.599E+00    4.643E+00    4.686E+00    4.730E+00
     4.773E+00    4.815E+00    4.857E+00    4.899E+00    4.940E+00    4.980E+00    5.020E+00    5.059E+00    5.097E+00    5.135E+00
     5.172E+00    5.208E+00    5.243E+00    5.277E+00    5.310E+00    5.342E+00    5.373E+00    5.404E+00    5.433E+00    5.462E+00
     5.490E+00    5.518E+00    5.544E+00    5.570E+00    5.595E+00    5.620E+00    5.644E+00    5.667E+00    5.690E+00    5.712E+00
     5.734E+00    5.755E+00    5.776E+00    5.796E+00    5.816E+00    5.836E+00    5.855E+00    5.874E+00    5.892E+00    5.911E+00
     5.929E+00    5.946E+00    5.964E+00    5.981E+00    5.999E+00    6.016E+00    6.033E+00    6.050E+00    6.067E+00    6.083E+00
     6.100E+00    6.117E+00    6.134E+00    6.151E+00    6.168E+00    6.185E+00    6.203E+00    6.220E+00
 Ala      Conc. = 4.93E+01
