 LCModel (Version 6.3-1L) Copyright: S.W. Provencher.          Ref.: Magn. Reson. Med. 30:672-679 (1993).                
 Slice#1 Row#3 Col#3  K_02_press_1_raw_act
 36 lines in following concentration table = NCONC+1
    Conc.  %SD /Cr+PCr  Metabolite                                         
    0.000 999%   0.000 Ala                                                 
   10.670  38%   0.000 Asp                                                 
    0.000 999%   0.000 Cr                                                  
    0.000 999%   0.000 PCr                                                 
    6.400  38%   0.000 GABA                                                
    6.399  38%   0.000 Glc                                                 
    0.000 999%   0.000 Gln                                                 
   63.550 312%   0.000 Glu                                                 
    1.106 999%   0.000 GPC                                                 
   22.950 253%   0.000 PCh                                                 
  114.357  62%   0.000 GSH                                                 
  600.988  40%   0.000 Ins                                                 
  508.761  32%   0.000 Lac                                                 
    0.000 999%   0.000 NAA                                                 
  141.178  37%   0.000 NAAG                                                
    2.133  38%   0.000 Scyllo                                              
   10.659  38%   0.000 Tau                                                 
    0.000 999%   0.000 -CrCH2                                              
   24.056  72%   0.000 GPC+PCh                                             
  141.178  37%   0.000 NAA+NAAG                                            
    0.000 999%   0.000 Cr+PCr                                              
   63.550 312%   0.000 Glu+Gln                                             
 1.85E+03  25%   0.000 Lip13a                                              
    0.000 999%   0.000 Lip13b                                              
    0.000 999%   0.000 Lip09                                               
 1.11E+03  14%   0.000 MM09                                                
    0.000 999%   0.000 Lip20                                               
    0.000 999%   0.000 MM20                                                
 1.26E+03  23%   0.000 MM12                                                
 1.40E+03  26%   0.000 MM14                                                
 5.08E+03   6%   0.000+MM17                                                
 1.85E+03  25%   0.000 Lip13a+Lip13b                                       
 4.51E+03   8%   0.000 MM14+Lip13a+Lip13b+MM12                             
 1.11E+03  14%   0.000 MM09+Lip09                                          
    0.000 999%   0.000 MM20+Lip20                                          
   6 lines in following misc. output table
  FWHM = 0.183 ppm    S/N =   3                                            
  Data shift = 0.214 ppm                                                   
  Ph: 163 deg      97.4 deg/ppm                                            
  alphaB,S = 1.0E+01,   1.1E+01                                            
    6 spline knots.   Ns = 9(2)                                            
  (13) 2 infls.   ( 3) 1 extrs.                                            
  498 points on ppm-axis = NY
      4.000000     3.992357     3.984714     3.977070     3.969427     3.961784     3.954141     3.946497     3.938854     3.931211
      3.923568     3.915925     3.908281     3.900638     3.892995     3.885352     3.877708     3.870065     3.862422     3.854779
      3.847136     3.839492     3.831849     3.824206     3.816563     3.808919     3.801276     3.793633     3.785990     3.778347
      3.770703     3.763060     3.755417     3.747774     3.740130     3.732487     3.724844     3.717201     3.709558     3.701914
      3.694271     3.686628     3.678985     3.671341     3.663698     3.656055     3.648412     3.640769     3.633125     3.625482
      3.617839     3.610196     3.602552     3.594909     3.587266     3.579623     3.571980     3.564336     3.556693     3.549050
      3.541407     3.533763     3.526120     3.518477     3.510834     3.503191     3.495547     3.487904     3.480261     3.472618
      3.464974     3.457331     3.449688     3.442045     3.434402     3.426758     3.419115     3.411472     3.403829     3.396185
      3.388542     3.380899     3.373256     3.365613     3.357969     3.350326     3.342683     3.335040     3.327396     3.319753
      3.312110     3.304467     3.296824     3.289180     3.281537     3.273894     3.266251     3.258607     3.250964     3.243321
      3.235678     3.228034     3.220391     3.212748     3.205105     3.197462     3.189818     3.182175     3.174532     3.166889
      3.159245     3.151602     3.143959     3.136316     3.128673     3.121029     3.113386     3.105743     3.098100     3.090456
      3.082813     3.075170     3.067527     3.059884     3.052240     3.044597     3.036954     3.029311     3.021667     3.014024
      3.006381     2.998738     2.991095     2.983451     2.975808     2.968165     2.960522     2.952878     2.945235     2.937592
      2.929949     2.922306     2.914662     2.907019     2.899376     2.891733     2.884089     2.876446     2.868803     2.861160
      2.853517     2.845873     2.838230     2.830587     2.822944     2.815300     2.807657     2.800014     2.792371     2.784728
      2.777084     2.769441     2.761798     2.754155     2.746511     2.738868     2.731225     2.723582     2.715939     2.708295
      2.700652     2.693009     2.685366     2.677722     2.670079     2.662436     2.654793     2.647150     2.639506     2.631863
      2.624220     2.616577     2.608933     2.601290     2.593647     2.586004     2.578361     2.570717     2.563074     2.555431
      2.547788     2.540144     2.532501     2.524858     2.517215     2.509572     2.501928     2.494285     2.486642     2.478999
      2.471355     2.463712     2.456069     2.448426     2.440783     2.433139     2.425496     2.417853     2.410210     2.402566
      2.394923     2.387280     2.379637     2.371994     2.364350     2.356707     2.349064     2.341421     2.333777     2.326134
      2.318491     2.310848     2.303205     2.295561     2.287918     2.280275     2.272632     2.264988     2.257345     2.249702
      2.242059     2.234416     2.226772     2.219129     2.211486     2.203843     2.196199     2.188556     2.180913     2.173270
      2.165627     2.157983     2.150340     2.142697     2.135054     2.127410     2.119767     2.112124     2.104481     2.096838
      2.089194     2.081551     2.073908     2.066265     2.058621     2.050978     2.043335     2.035692     2.028049     2.020405
      2.012762     2.005119     1.997476     1.989833     1.982190     1.974546     1.966903     1.959260     1.951617     1.943974
      1.936331     1.928688     1.921045     1.913402     1.905759     1.898115     1.890472     1.882829     1.875186     1.867543
      1.859900     1.852257     1.844614     1.836971     1.829327     1.821684     1.814041     1.806398     1.798755     1.791112
      1.783469     1.775826     1.768183     1.760540     1.752896     1.745253     1.737610     1.729967     1.722324     1.714681
      1.707038     1.699395     1.691752     1.684108     1.676465     1.668822     1.661179     1.653536     1.645893     1.638250
      1.630607     1.622964     1.615321     1.607677     1.600034     1.592391     1.584748     1.577105     1.569462     1.561819
      1.554176     1.546533     1.538890     1.531246     1.523603     1.515960     1.508317     1.500674     1.493031     1.485388
      1.477745     1.470102     1.462458     1.454815     1.447172     1.439529     1.431886     1.424243     1.416600     1.408957
      1.401314     1.393671     1.386027     1.378384     1.370741     1.363098     1.355455     1.347812     1.340169     1.332526
      1.324883     1.317240     1.309596     1.301953     1.294310     1.286667     1.279024     1.271381     1.263738     1.256095
      1.248452     1.240808     1.233165     1.225522     1.217879     1.210236     1.202593     1.194950     1.187307     1.179664
      1.172021     1.164377     1.156734     1.149091     1.141448     1.133805     1.126162     1.118519     1.110876     1.103233
      1.095590     1.087946     1.080303     1.072660     1.065017     1.057374     1.049731     1.042088     1.034445     1.026802
      1.019158     1.011515     1.003872     0.996229     0.988586     0.980943     0.973300     0.965657     0.958014     0.950371
      0.942727     0.935084     0.927441     0.919798     0.912155     0.904512     0.896869     0.889226     0.881583     0.873940
      0.866296     0.858653     0.851010     0.843367     0.835724     0.828081     0.820438     0.812795     0.805152     0.797508
      0.789865     0.782222     0.774579     0.766936     0.759293     0.751650     0.744007     0.736364     0.728721     0.721077
      0.713434     0.705791     0.698148     0.690505     0.682862     0.675219     0.667576     0.659933     0.652290     0.644646
      0.637003     0.629360     0.621717     0.614074     0.606431     0.598788     0.591145     0.583502     0.575858     0.568215
      0.560572     0.552929     0.545286     0.537643     0.530000     0.522357     0.514714     0.507071     0.499427     0.491784
      0.484141     0.476498     0.468855     0.461212     0.453569     0.445925     0.438282     0.430639     0.422996     0.415353
      0.407710     0.400067     0.392424     0.384780     0.377137     0.369494     0.361851     0.354208     0.346565     0.338922
      0.331278     0.323635     0.315992     0.308349     0.300706     0.293063     0.285420     0.277777     0.270133     0.262490
      0.254847     0.247204     0.239561     0.231918     0.224275     0.216631     0.208988     0.201345
 NY phased data points follow
   2.89183E+01  2.61283E+01  2.71705E+01  2.32025E+01  2.54381E+01  2.60496E+01  2.52431E+01  2.75512E+01  2.64759E+01  2.00048E+01
   2.72377E+01  2.44771E+01  2.33038E+01  2.32618E+01  2.75883E+01  2.48577E+01  2.35984E+01  2.08950E+01  2.36267E+01  2.19794E+01
   2.27507E+01  2.21216E+01  2.37150E+01  2.34800E+01  2.21155E+01  1.99900E+01  1.80225E+01  2.16329E+01  2.13936E+01  1.97984E+01
   2.43366E+01  1.97615E+01  2.13996E+01  1.62833E+01  2.27033E+01  1.86631E+01  1.96658E+01  1.98580E+01  1.72522E+01  1.77593E+01
   1.85110E+01  1.96479E+01  1.45568E+01  1.70474E+01  1.91624E+01  1.60658E+01  1.94715E+01  1.39935E+01  1.78884E+01  1.39562E+01
   1.44419E+01  1.84454E+01  1.78632E+01  1.64024E+01  1.19573E+01  1.44432E+01  1.38354E+01  1.92428E+01  1.46399E+01  1.34356E+01
   1.14405E+01  1.43478E+01  1.43034E+01  1.55068E+01  1.46894E+01  1.72780E+01  1.40119E+01  1.52234E+01  1.32136E+01  1.08879E+01
   1.17710E+01  1.38084E+01  1.25965E+01  1.18687E+01  7.73469E+00  1.26493E+01  1.31373E+01  1.04788E+01  7.28201E+00  1.15686E+01
   7.79174E+00  5.06902E+00  9.03507E+00  7.70793E+00  1.11417E+01  8.87755E+00  1.00690E+01  1.03232E+01  1.22095E+01  1.48435E+01
   6.15836E+00  9.87384E+00  1.11578E+01  5.46995E+00  8.90703E+00  9.89415E+00  9.06935E+00  9.99234E+00  6.69130E+00  1.27342E+01
   1.99453E+00  7.83289E+00  4.29921E+00  2.10167E+00  3.35836E+00  5.43698E+00  2.57764E+00  8.10222E+00  4.79286E+00  5.69956E+00
   7.13879E+00  4.10039E+00  7.63272E+00  6.21697E+00  7.59306E+00  2.85291E+00  6.77193E-01  5.00329E+00  4.11398E+00 -4.96564E-01
   5.89286E+00  2.47154E+00  1.70814E+00  5.50255E+00  5.23327E+00  3.48424E+00  1.03627E+00  8.83887E-01  2.95059E+00  3.18283E+00
   1.39525E+00  2.69967E+00 -1.77097E-01  3.40516E+00  1.74002E+00 -1.75005E-01  2.88207E+00  1.89151E+00  3.50956E-01  5.12743E-01
  -1.12733E+00  1.88506E+00  8.52342E-01 -1.70288E+00  1.80963E+00  7.89083E-02  1.23957E+00  6.45815E-01 -4.01613E-01 -4.44715E+00
   2.05594E+00  1.18058E+00 -5.21899E-01 -5.01114E-01 -1.50168E+00 -1.80447E+00 -1.47688E+00 -3.36474E+00 -4.67214E+00 -1.89395E+00
  -2.06743E+00 -2.33283E+00 -8.55975E+00 -4.70284E+00 -1.71603E+00 -3.05674E+00 -7.15985E+00 -7.06484E+00 -7.58069E+00 -7.38441E+00
  -5.64739E+00 -1.27782E-01 -1.49597E+00 -6.23664E-01 -6.57173E+00 -3.42758E+00 -4.41610E+00 -5.55021E+00 -7.82125E+00 -1.93921E+00
  -6.91838E+00 -8.92148E+00 -7.89007E+00 -8.13599E+00 -2.51600E+00 -2.76575E+00 -8.57915E+00 -6.58150E+00 -5.78368E+00 -4.73855E+00
  -1.07030E+01 -6.14615E+00 -4.53218E+00 -2.83450E+00 -5.16664E+00 -4.77615E+00 -4.79057E+00 -7.07899E+00 -3.92954E+00 -2.28855E+00
  -6.37911E+00 -2.04238E+00 -2.49358E+00 -9.11086E+00 -8.61031E+00 -3.62568E+00 -6.52465E+00 -6.03363E+00 -8.64625E+00 -7.63527E+00
  -7.78206E+00 -8.56981E+00 -7.41630E+00 -8.87528E+00 -9.81905E+00 -8.70266E+00 -1.15842E+01 -7.07277E+00 -4.93162E+00 -7.92066E+00
  -9.77778E+00 -8.08311E+00 -9.14684E+00 -5.84556E+00 -1.23920E+01 -1.26247E+01 -1.00204E+01 -7.54937E+00 -5.06729E+00 -8.46355E+00
  -8.62463E+00 -8.28035E+00 -9.17698E+00 -1.01935E+01 -1.25291E+01 -1.21935E+01 -8.36608E+00 -8.98707E+00 -1.00682E+01 -4.62431E+00
  -5.84302E+00 -5.68716E+00 -2.67950E+00 -8.16370E+00 -9.46689E+00 -8.18456E+00 -1.15842E+01 -1.17229E+01 -9.40091E+00 -1.76189E+01
  -1.52792E+01 -1.46084E+01 -1.20491E+01 -1.61145E+01 -1.52814E+01 -1.33604E+01 -1.55544E+01 -1.56157E+01 -1.44891E+01 -1.44778E+01
  -1.53155E+01 -1.53706E+01 -1.30600E+01 -1.63026E+01 -1.52986E+01 -1.76750E+01 -1.68404E+01 -1.65596E+01 -1.57723E+01 -1.55123E+01
  -1.70459E+01 -1.31796E+01 -1.50650E+01 -1.76922E+01 -2.02890E+01 -1.39235E+01 -1.84757E+01 -1.67114E+01 -1.25172E+01 -1.80041E+01
  -1.82074E+01 -2.08772E+01 -1.26037E+01 -1.86385E+01 -1.60707E+01 -1.84341E+01 -2.08360E+01 -2.08713E+01 -1.90444E+01 -1.85595E+01
  -1.78511E+01 -2.10612E+01 -1.54747E+01 -2.24320E+01 -1.65492E+01 -1.86586E+01 -1.94154E+01 -2.19622E+01 -1.97291E+01 -1.68445E+01
  -1.69598E+01 -1.97934E+01 -1.62403E+01 -1.68904E+01 -1.69009E+01 -1.60955E+01 -1.79168E+01 -1.94850E+01 -1.86861E+01 -1.97137E+01
  -1.36509E+01 -6.60716E+00 -5.91216E+00 -8.47576E+00 -1.45500E+00  2.97762E-02  2.33375E+00  4.81249E+00  1.09550E+00  6.85917E+00
   2.84960E+00  2.66239E+00  7.45666E+00  7.08447E+00  6.05789E+00  5.41168E+00  6.85451E+00  7.64327E+00  9.15082E+00  1.25754E+01
   8.45616E+00  1.04834E+01  9.35634E+00  7.56739E+00  6.38339E+00  1.47860E+00  8.26739E-01  1.06596E+00  1.63117E+00 -3.61308E-01
  -9.37591E-01  9.56184E-01 -3.28963E+00  3.13201E+00  6.79275E-01 -9.41439E-01  2.21908E+00  4.64696E-01  1.08191E+00  4.51788E+00
   3.42058E+00  5.90879E+00  3.50096E+00  4.96016E+00  1.79276E+00  1.97430E+00  1.99635E-01 -5.03823E+00 -1.26871E-01 -1.74817E+00
   1.61832E+00  8.93556E-01  7.17888E-01  1.89730E+00 -1.11167E+00  5.86176E+00  3.40555E+00  6.41474E+00  3.61246E+00  1.61791E+00
   3.52512E+00  3.65362E+00  4.53001E+00  1.02015E+00  1.15132E+00  2.39047E+00  4.24406E+00 -6.35363E-01  2.23752E+00  5.87940E+00
   2.04825E+00  3.27241E+00  4.40745E+00  4.45778E+00  5.43903E+00  5.58340E+00  5.67109E+00  6.71354E+00  4.90675E+00  4.96474E+00
   7.07240E+00  2.24112E+00  3.50682E+00  4.34144E+00  6.43414E+00  2.93784E+00  1.71328E+00  3.69778E+00  4.07843E+00  7.31291E+00
   4.34850E+00 -2.58941E-01  3.80423E+00  4.98003E+00  5.54008E+00  2.83526E+00  5.65373E+00  5.84860E+00  4.16169E+00  6.23189E+00
  -1.70953E+00 -1.82650E+00  3.02197E+00  3.81003E+00  2.66580E+00  7.44721E+00  5.53836E+00  3.05202E+00  5.09456E+00  3.95243E+00
   3.81000E+00  3.57722E+00  4.69582E+00  2.94248E+00  2.28918E+00  7.16868E-01  2.10509E+00  3.01862E+00  3.50338E+00  5.66679E+00
   5.19507E+00  3.10107E+00  5.12243E-01  5.34663E+00  5.79405E-01  1.11330E+00  1.50161E+00  2.10977E+00  5.67080E+00  4.85569E+00
   1.46261E+00  5.11083E+00 -4.74702E+00  2.00216E+00  1.38784E-01  1.83881E+00  2.17658E+00  2.20441E+00 -1.71309E-01  4.20175E+00
  -1.80299E+00 -5.18133E-01  2.61180E-01  1.57396E-01  1.64561E+00  1.28012E+00  9.98411E-01  4.08635E+00  2.88731E+00  2.64444E+00
  -4.28532E+00  2.11880E+00  6.97682E-01  4.00077E-01 -1.19598E+00  1.63235E+00 -1.65347E-01  1.87973E+00 -1.79392E+00 -1.94828E+00
   1.04530E+00 -2.61226E-01 -7.61102E-02  1.04403E+00  1.13910E+00 -5.50486E-01 -1.02974E+00 -1.21362E+00  6.05456E-01  4.85818E-01
  -1.48443E+00 -1.07859E+00 -1.95213E+00 -2.06104E+00 -4.45271E-01  3.49224E-02 -1.70527E+00  1.34683E+00  4.12801E+00  4.13271E+00
   2.96524E+00 -1.21144E+00  2.43821E+00  1.40064E+00  6.03065E-01 -7.38983E-01 -5.49222E-01  2.94333E+00
 NY points of the fit to the data follow
   2.50718E+01  2.49458E+01  2.43594E+01  2.41902E+01  2.39367E+01  2.38708E+01  2.35591E+01  2.35199E+01  2.31433E+01  2.30931E+01
   2.26927E+01  2.28129E+01  2.34947E+01  2.32145E+01  2.36684E+01  2.30862E+01  2.28834E+01  2.23418E+01  2.20930E+01  2.18316E+01
   2.17467E+01  2.12277E+01  2.07757E+01  2.01581E+01  1.94317E+01  1.89983E+01  1.83895E+01  1.81275E+01  1.79031E+01  1.88827E+01
   1.97958E+01  2.05171E+01  2.09608E+01  2.07050E+01  2.06069E+01  1.99363E+01  1.95457E+01  1.90118E+01  1.87912E+01  1.83001E+01
   1.79759E+01  1.76012E+01  1.73553E+01  1.71763E+01  1.73204E+01  1.68723E+01  1.67481E+01  1.62631E+01  1.62817E+01  1.63493E+01
   1.65191E+01  1.69027E+01  1.70680E+01  1.68732E+01  1.66964E+01  1.62601E+01  1.60391E+01  1.55881E+01  1.52959E+01  1.49730E+01
   1.47545E+01  1.47969E+01  1.48786E+01  1.49389E+01  1.49345E+01  1.47517E+01  1.45005E+01  1.39178E+01  1.32981E+01  1.26339E+01
   1.21392E+01  1.15493E+01  1.12437E+01  1.09532E+01  1.10461E+01  1.09798E+01  1.12456E+01  1.11479E+01  1.14108E+01  1.11806E+01
   1.10478E+01  1.07880E+01  1.05152E+01  1.03377E+01  1.00951E+01  1.03859E+01  1.10120E+01  1.08931E+01  1.12674E+01  1.05747E+01
   1.04701E+01  9.62464E+00  9.35205E+00  8.73463E+00  8.64012E+00  8.22038E+00  8.12338E+00  7.77209E+00  7.54124E+00  7.33633E+00
   7.01571E+00  6.80073E+00  6.30201E+00  6.11591E+00  5.77209E+00  5.75103E+00  5.84394E+00  5.87588E+00  6.18896E+00  5.99839E+00
   6.10661E+00  5.81173E+00  5.82629E+00  5.52156E+00  5.53667E+00  5.39030E+00  5.44625E+00  5.16671E+00  5.17604E+00  4.70854E+00
   4.47881E+00  4.10798E+00  4.02571E+00  3.72473E+00  3.65737E+00  3.41684E+00  3.39203E+00  3.14319E+00  3.02766E+00  2.84927E+00
   2.74161E+00  2.62807E+00  2.51913E+00  2.42420E+00  2.28800E+00  2.22104E+00  2.04223E+00  1.84610E+00  1.62663E+00  1.35799E+00
   1.10693E+00  9.45993E-01  7.50607E-01  6.32713E-01  5.62414E-01  4.02320E-01  3.67762E-01  2.12457E-01  1.76551E-01  7.40930E-03
  -8.05779E-02 -2.80775E-01 -4.65245E-01 -6.90076E-01 -8.38471E-01 -9.58958E-01 -9.97265E-01 -1.17809E+00 -1.27618E+00 -1.45575E+00
  -1.58326E+00 -1.72026E+00 -1.88099E+00 -2.00923E+00 -2.20154E+00 -2.41601E+00 -2.53202E+00 -2.75860E+00 -2.88139E+00 -3.08495E+00
  -3.23043E+00 -3.38820E+00 -3.44130E+00 -3.43546E+00 -3.31158E+00 -3.26885E+00 -3.29467E+00 -3.37876E+00 -3.62426E+00 -3.91440E+00
  -4.37631E+00 -4.49326E+00 -4.72880E+00 -4.76066E+00 -4.92232E+00 -5.03801E+00 -5.18087E+00 -5.34379E+00 -5.43909E+00 -5.58812E+00
  -5.66016E+00 -5.80267E+00 -5.84686E+00 -5.95521E+00 -5.96489E+00 -6.02421E+00 -6.05914E+00 -6.18777E+00 -6.21098E+00 -6.38672E+00
  -6.56109E+00 -6.71427E+00 -6.91219E+00 -7.01330E+00 -7.23320E+00 -7.39735E+00 -7.54231E+00 -7.61239E+00 -7.71275E+00 -7.71204E+00
  -7.84029E+00 -7.91949E+00 -8.11313E+00 -8.35077E+00 -8.63633E+00 -8.82158E+00 -9.01156E+00 -8.98166E+00 -8.88962E+00 -8.73879E+00
  -8.57485E+00 -8.63473E+00 -8.76631E+00 -9.08112E+00 -9.45820E+00 -9.89672E+00 -1.02375E+01 -1.05137E+01 -1.05770E+01 -1.06879E+01
  -1.06736E+01 -1.08244E+01 -1.09451E+01 -1.12251E+01 -1.15124E+01 -1.18386E+01 -1.23148E+01 -1.23847E+01 -1.09173E+01 -1.02907E+01
  -9.24219E+00 -8.97526E+00 -8.94513E+00 -9.15342E+00 -9.52902E+00 -9.93013E+00 -1.02894E+01 -1.06480E+01 -1.10979E+01 -1.14609E+01
  -1.21643E+01 -1.25626E+01 -1.31017E+01 -1.35066E+01 -1.40338E+01 -1.44352E+01 -1.47246E+01 -1.49746E+01 -1.45229E+01 -1.44309E+01
  -1.37398E+01 -1.36143E+01 -1.34556E+01 -1.35486E+01 -1.35425E+01 -1.37181E+01 -1.37997E+01 -1.40392E+01 -1.43062E+01 -1.45926E+01
  -1.46164E+01 -1.47802E+01 -1.49315E+01 -1.51545E+01 -1.52566E+01 -1.54791E+01 -1.60269E+01 -1.64190E+01 -1.67232E+01 -1.70138E+01
  -1.72991E+01 -1.76069E+01 -1.79086E+01 -1.82155E+01 -1.85245E+01 -1.88223E+01 -1.91162E+01 -1.94167E+01 -1.96939E+01 -1.99813E+01
  -2.02416E+01 -2.05119E+01 -2.07492E+01 -2.09773E+01 -2.11472E+01 -2.12971E+01 -2.13625E+01 -2.13656E+01 -2.12702E+01 -2.10979E+01
  -2.08020E+01 -2.04044E+01 -1.98605E+01 -1.91953E+01 -1.83774E+01 -1.74152E+01 -1.63006E+01 -1.50482E+01 -1.36626E+01 -1.21671E+01
  -1.05747E+01 -8.91364E+00 -7.21774E+00 -5.51593E+00 -3.83710E+00 -2.21264E+00 -6.72773E-01  7.55551E-01  2.04895E+00  3.19284E+00
   4.16980E+00  4.97437E+00  5.60540E+00  6.06800E+00  6.37354E+00  6.54222E+00  6.61087E+00  6.67903E+00  7.29140E+00  9.86501E+00
   1.01811E+01  1.03931E+01  9.50986E+00  7.72014E+00  6.07793E+00  3.32105E+00  3.02653E-01  2.39190E-01 -6.58655E-01 -3.41098E-02
   2.96584E-02 -1.21119E-01 -1.55318E-01 -2.05233E-01 -1.99880E-01  4.29708E-02  5.27496E-01  1.21042E+00  2.18436E+00  3.33644E+00
   3.96500E+00  4.45714E+00  4.42687E+00  3.42466E+00  2.63724E+00  1.49263E+00  2.12457E-01  7.89984E-02 -5.18690E-01  1.57910E-01
   6.13806E-01  1.69869E+00  2.12438E+00  2.71473E+00  2.98653E+00  3.51042E+00  3.63124E+00  3.08644E+00  2.76625E+00  3.14410E+00
   3.27888E+00  3.59780E+00  3.69208E+00  4.14035E+00  4.57347E+00  4.35853E+00  4.09368E+00  3.84191E+00  3.59657E+00  3.35634E+00
   3.12358E+00  2.90249E+00  2.69813E+00  2.51593E+00  2.36113E+00  2.23847E+00  2.15187E+00  2.10424E+00  2.09740E+00  2.13192E+00
   2.20704E+00  2.32065E+00  2.46930E+00  2.64838E+00  2.85229E+00  3.07463E+00  3.30842E+00  3.54636E+00  3.78115E+00  4.00580E+00
   4.21392E+00  4.39988E+00  4.55899E+00  4.68766E+00  4.78344E+00  4.84511E+00  4.87255E+00  4.86668E+00  4.82927E+00  4.76279E+00
   4.67028E+00  4.55517E+00  4.42110E+00  4.27169E+00  4.11046E+00  3.94073E+00  3.76558E+00  3.58775E+00  3.40961E+00  3.23314E+00
   3.05996E+00  2.89135E+00  2.72833E+00  2.57165E+00  2.42179E+00  2.27904E+00  2.14353E+00  2.01529E+00  1.89425E+00  1.78030E+00
   1.67322E+00  1.57276E+00  1.47866E+00  1.39068E+00  1.30858E+00  1.23208E+00  1.16092E+00  1.09484E+00  1.03360E+00  9.76995E-01
   9.24829E-01  8.76896E-01  8.32986E-01  7.92921E-01  7.56543E-01  7.23718E-01  6.94302E-01  6.68147E-01  6.45111E-01  6.25076E-01
   6.07947E-01  5.93631E-01  5.82023E-01  5.73014E-01  5.66511E-01  5.62438E-01  5.60734E-01  5.61329E-01  5.64144E-01  5.69098E-01
   5.76129E-01  5.85193E-01  5.96242E-01  6.09222E-01  6.24067E-01  6.40720E-01  6.59141E-01  6.79299E-01  7.01156E-01  7.24664E-01
   7.49767E-01  7.76427E-01  8.04618E-01  8.34313E-01  8.65475E-01  8.98059E-01  9.32022E-01  9.67335E-01  1.00397E+00  1.04191E+00
   1.08110E+00  1.12151E+00  1.16309E+00  1.20581E+00  1.24964E+00  1.29454E+00  1.34046E+00  1.38733E+00  1.43510E+00  1.48371E+00
   1.53309E+00  1.58313E+00  1.63372E+00  1.68472E+00  1.73594E+00  1.78714E+00  1.83799E+00  1.88801E+00
 NY background values follow
     2.404E+01    2.387E+01    2.370E+01    2.354E+01    2.337E+01    2.320E+01    2.303E+01    2.287E+01    2.270E+01    2.253E+01
     2.237E+01    2.220E+01    2.203E+01    2.187E+01    2.170E+01    2.153E+01    2.137E+01    2.120E+01    2.103E+01    2.087E+01
     2.070E+01    2.054E+01    2.037E+01    2.021E+01    2.004E+01    1.988E+01    1.971E+01    1.955E+01    1.938E+01    1.922E+01
     1.905E+01    1.889E+01    1.873E+01    1.856E+01    1.840E+01    1.824E+01    1.807E+01    1.791E+01    1.775E+01    1.759E+01
     1.743E+01    1.726E+01    1.710E+01    1.694E+01    1.678E+01    1.662E+01    1.646E+01    1.630E+01    1.614E+01    1.598E+01
     1.582E+01    1.566E+01    1.550E+01    1.534E+01    1.519E+01    1.503E+01    1.487E+01    1.471E+01    1.456E+01    1.440E+01
     1.424E+01    1.409E+01    1.393E+01    1.377E+01    1.362E+01    1.346E+01    1.331E+01    1.316E+01    1.300E+01    1.285E+01
     1.270E+01    1.254E+01    1.239E+01    1.224E+01    1.209E+01    1.193E+01    1.178E+01    1.163E+01    1.148E+01    1.133E+01
     1.118E+01    1.103E+01    1.089E+01    1.074E+01    1.059E+01    1.044E+01    1.029E+01    1.015E+01    1.000E+01    9.855E+00
     9.709E+00    9.564E+00    9.419E+00    9.275E+00    9.131E+00    8.988E+00    8.845E+00    8.702E+00    8.560E+00    8.418E+00
     8.277E+00    8.136E+00    7.996E+00    7.856E+00    7.716E+00    7.577E+00    7.439E+00    7.301E+00    7.163E+00    7.026E+00
     6.889E+00    6.753E+00    6.618E+00    6.482E+00    6.348E+00    6.213E+00    6.080E+00    5.946E+00    5.814E+00    5.681E+00
     5.550E+00    5.419E+00    5.288E+00    5.158E+00    5.028E+00    4.899E+00    4.770E+00    4.642E+00    4.514E+00    4.387E+00
     4.261E+00    4.135E+00    4.009E+00    3.885E+00    3.760E+00    3.636E+00    3.513E+00    3.390E+00    3.268E+00    3.147E+00
     3.025E+00    2.905E+00    2.785E+00    2.666E+00    2.547E+00    2.429E+00    2.311E+00    2.194E+00    2.077E+00    1.961E+00
     1.846E+00    1.731E+00    1.617E+00    1.504E+00    1.391E+00    1.278E+00    1.166E+00    1.055E+00    9.446E-01    8.345E-01
     7.251E-01    6.163E-01    5.081E-01    4.005E-01    2.936E-01    1.872E-01    8.145E-02   -2.369E-02   -1.282E-01   -2.321E-01
    -3.354E-01   -4.381E-01   -5.401E-01   -6.416E-01   -7.424E-01   -8.426E-01   -9.422E-01   -1.041E+00   -1.140E+00   -1.237E+00
    -1.334E+00   -1.431E+00   -1.527E+00   -1.622E+00   -1.717E+00   -1.811E+00   -1.904E+00   -1.997E+00   -2.089E+00   -2.181E+00
    -2.272E+00   -2.362E+00   -2.452E+00   -2.541E+00   -2.630E+00   -2.718E+00   -2.805E+00   -2.892E+00   -2.978E+00   -3.064E+00
    -3.148E+00   -3.233E+00   -3.316E+00   -3.399E+00   -3.482E+00   -3.564E+00   -3.645E+00   -3.726E+00   -3.806E+00   -3.885E+00
    -3.964E+00   -4.042E+00   -4.120E+00   -4.197E+00   -4.273E+00   -4.349E+00   -4.424E+00   -4.499E+00   -4.573E+00   -4.646E+00
    -4.719E+00   -4.791E+00   -4.862E+00   -4.933E+00   -5.004E+00   -5.073E+00   -5.142E+00   -5.211E+00   -5.279E+00   -5.346E+00
    -5.413E+00   -5.479E+00   -5.545E+00   -5.609E+00   -5.674E+00   -5.737E+00   -5.801E+00   -5.863E+00   -5.925E+00   -5.986E+00
    -6.047E+00   -6.107E+00   -6.167E+00   -6.225E+00   -6.284E+00   -6.341E+00   -6.399E+00   -6.455E+00   -6.511E+00   -6.566E+00
    -6.621E+00   -6.675E+00   -6.729E+00   -6.782E+00   -6.834E+00   -6.886E+00   -6.937E+00   -6.987E+00   -7.037E+00   -7.087E+00
    -7.135E+00   -7.183E+00   -7.231E+00   -7.278E+00   -7.324E+00   -7.370E+00   -7.415E+00   -7.460E+00   -7.504E+00   -7.547E+00
    -7.590E+00   -7.632E+00   -7.674E+00   -7.715E+00   -7.755E+00   -7.795E+00   -7.835E+00   -7.873E+00   -7.911E+00   -7.949E+00
    -7.986E+00   -8.022E+00   -8.058E+00   -8.093E+00   -8.127E+00   -8.161E+00   -8.195E+00   -8.227E+00   -8.259E+00   -8.291E+00
    -8.322E+00   -8.352E+00   -8.382E+00   -8.411E+00   -8.440E+00   -8.468E+00   -8.496E+00   -8.522E+00   -8.549E+00   -8.574E+00
    -8.599E+00   -8.624E+00   -8.648E+00   -8.671E+00   -8.694E+00   -8.716E+00   -8.738E+00   -8.758E+00   -8.779E+00   -8.799E+00
    -8.818E+00   -8.836E+00   -8.854E+00   -8.872E+00   -8.889E+00   -8.905E+00   -8.921E+00   -8.936E+00   -8.950E+00   -8.964E+00
    -8.978E+00   -8.990E+00   -9.002E+00   -9.014E+00   -9.025E+00   -9.035E+00   -9.045E+00   -9.054E+00   -9.063E+00   -9.071E+00
    -9.078E+00   -9.085E+00   -9.091E+00   -9.097E+00   -9.102E+00   -9.107E+00   -9.111E+00   -9.114E+00   -9.117E+00   -9.119E+00
    -9.120E+00   -9.121E+00   -9.121E+00   -9.121E+00   -9.120E+00   -9.119E+00   -9.117E+00   -9.114E+00   -9.111E+00   -9.107E+00
    -9.103E+00   -9.098E+00   -9.092E+00   -9.086E+00   -9.079E+00   -9.071E+00   -9.063E+00   -9.055E+00   -9.045E+00   -9.036E+00
    -9.025E+00   -9.014E+00   -9.002E+00   -8.990E+00   -8.977E+00   -8.964E+00   -8.949E+00   -8.935E+00   -8.919E+00   -8.903E+00
    -8.887E+00   -8.870E+00   -8.852E+00   -8.834E+00   -8.815E+00   -8.795E+00   -8.775E+00   -8.754E+00   -8.732E+00   -8.710E+00
    -8.688E+00   -8.664E+00   -8.640E+00   -8.616E+00   -8.591E+00   -8.565E+00   -8.539E+00   -8.512E+00   -8.484E+00   -8.456E+00
    -8.427E+00   -8.398E+00   -8.368E+00   -8.337E+00   -8.306E+00   -8.274E+00   -8.241E+00   -8.208E+00   -8.174E+00   -8.140E+00
    -8.105E+00   -8.069E+00   -8.033E+00   -7.996E+00   -7.958E+00   -7.920E+00   -7.882E+00   -7.842E+00   -7.802E+00   -7.762E+00
    -7.720E+00   -7.679E+00   -7.636E+00   -7.593E+00   -7.549E+00   -7.505E+00   -7.460E+00   -7.415E+00   -7.368E+00   -7.322E+00
    -7.274E+00   -7.226E+00   -7.177E+00   -7.128E+00   -7.078E+00   -7.028E+00   -6.976E+00   -6.925E+00   -6.872E+00   -6.819E+00
    -6.766E+00   -6.711E+00   -6.656E+00   -6.601E+00   -6.545E+00   -6.488E+00   -6.431E+00   -6.373E+00   -6.314E+00   -6.255E+00
    -6.195E+00   -6.134E+00   -6.073E+00   -6.012E+00   -5.949E+00   -5.886E+00   -5.823E+00   -5.758E+00   -5.694E+00   -5.628E+00
    -5.562E+00   -5.495E+00   -5.428E+00   -5.360E+00   -5.292E+00   -5.222E+00   -5.153E+00   -5.082E+00   -5.011E+00   -4.940E+00
    -4.867E+00   -4.794E+00   -4.721E+00   -4.647E+00   -4.572E+00   -4.497E+00   -4.421E+00   -4.344E+00   -4.267E+00   -4.189E+00
    -4.111E+00   -4.032E+00   -3.952E+00   -3.872E+00   -3.791E+00   -3.709E+00   -3.627E+00   -3.545E+00   -3.461E+00   -3.377E+00
    -3.293E+00   -3.208E+00   -3.122E+00   -3.036E+00   -2.949E+00   -2.861E+00   -2.773E+00   -2.684E+00   -2.595E+00   -2.505E+00
    -2.414E+00   -2.323E+00   -2.231E+00   -2.138E+00   -2.045E+00   -1.952E+00   -1.857E+00   -1.763E+00
 Asp      Conc. = 1.07E+01
