 LCModel (Version 6.3-1L) Copyright: S.W. Provencher.          Ref.: Magn. Reson. Med. 30:672-679 (1993).                
 Slice#1 Row#1 Col#4  K_02_press_1_raw_act
 36 lines in following concentration table = NCONC+1
    Conc.  %SD /Cr+PCr  Metabolite                                         
 5.34E+03   7%  97.130 Ala                                                 
    7.304  94%   0.133 Asp                                                 
    0.000 999%   0.000 Cr                                                  
   55.022 138%   1.000 PCr                                                 
    4.389  93% 8.0E-02 GABA                                                
    4.405  93% 8.0E-02 Glc                                                 
    0.000 999%   0.000 Gln                                                 
    0.000 999%   0.000 Glu                                                 
    0.000 999%   0.000 GPC                                                 
   30.545  93%   0.555 PCh                                                 
  282.041  38%   5.126 GSH                                                 
  521.544  59%   9.479 Ins                                                 
    0.000 999%   0.000 Lac                                                 
    0.000 999%   0.000 NAA                                                 
    0.000 999%   0.000 NAAG                                                
    1.478  93% 2.7E-02 Scyllo                                              
    7.361  93%   0.134 Tau                                                 
    5.507 139%   0.100 -CrCH2                                              
   30.545  93%   0.555 GPC+PCh                                             
    0.000 999%   0.000 NAA+NAAG                                            
   55.022 138%   1.000 Cr+PCr                                              
    0.000 999%   0.000 Glu+Gln                                             
    0.000 999%   0.000 Lip13a                                              
    0.000 999%   0.000 Lip13b                                              
  129.739  66%   2.358 Lip09                                               
   83.510  52%   1.518 MM09                                                
    0.000 999%   0.000 Lip20                                               
    0.000 999%   0.000 MM20                                                
   26.954  87%   0.490 MM12                                                
    0.000 999%   0.000 MM14                                                
  304.823  18%   5.540+MM17                                                
    0.000 999%   0.000 Lip13a+Lip13b                                       
   26.954  87%   0.490 MM14+Lip13a+Lip13b+MM12                             
  213.249  39%   3.876 MM09+Lip09                                          
    0.000 999%   0.000 MM20+Lip20                                          
   6 lines in following misc. output table
  FWHM = 0.199 ppm    S/N =   3                                            
  Data shift = 0.306 ppm                                                   
  Ph: -24 deg       4.8 deg/ppm                                            
  alphaB,S = 1.9E+00,   2.3E+02                                            
    8 spline knots.   Ns = 9(2)                                            
  (13) 9 infls.   ( 9) 1 extrs.                                            
  498 points on ppm-axis = NY
      4.000000     3.992357     3.984714     3.977070     3.969427     3.961784     3.954141     3.946497     3.938854     3.931211
      3.923568     3.915925     3.908281     3.900638     3.892995     3.885352     3.877708     3.870065     3.862422     3.854779
      3.847136     3.839492     3.831849     3.824206     3.816563     3.808919     3.801276     3.793633     3.785990     3.778347
      3.770703     3.763060     3.755417     3.747774     3.740130     3.732487     3.724844     3.717201     3.709558     3.701914
      3.694271     3.686628     3.678985     3.671341     3.663698     3.656055     3.648412     3.640769     3.633125     3.625482
      3.617839     3.610196     3.602552     3.594909     3.587266     3.579623     3.571980     3.564336     3.556693     3.549050
      3.541407     3.533763     3.526120     3.518477     3.510834     3.503191     3.495547     3.487904     3.480261     3.472618
      3.464974     3.457331     3.449688     3.442045     3.434402     3.426758     3.419115     3.411472     3.403829     3.396185
      3.388542     3.380899     3.373256     3.365613     3.357969     3.350326     3.342683     3.335040     3.327396     3.319753
      3.312110     3.304467     3.296824     3.289180     3.281537     3.273894     3.266251     3.258607     3.250964     3.243321
      3.235678     3.228034     3.220391     3.212748     3.205105     3.197462     3.189818     3.182175     3.174532     3.166889
      3.159245     3.151602     3.143959     3.136316     3.128673     3.121029     3.113386     3.105743     3.098100     3.090456
      3.082813     3.075170     3.067527     3.059884     3.052240     3.044597     3.036954     3.029311     3.021667     3.014024
      3.006381     2.998738     2.991095     2.983451     2.975808     2.968165     2.960522     2.952878     2.945235     2.937592
      2.929949     2.922306     2.914662     2.907019     2.899376     2.891733     2.884089     2.876446     2.868803     2.861160
      2.853517     2.845873     2.838230     2.830587     2.822944     2.815300     2.807657     2.800014     2.792371     2.784728
      2.777084     2.769441     2.761798     2.754155     2.746511     2.738868     2.731225     2.723582     2.715939     2.708295
      2.700652     2.693009     2.685366     2.677722     2.670079     2.662436     2.654793     2.647150     2.639506     2.631863
      2.624220     2.616577     2.608933     2.601290     2.593647     2.586004     2.578361     2.570717     2.563074     2.555431
      2.547788     2.540144     2.532501     2.524858     2.517215     2.509572     2.501928     2.494285     2.486642     2.478999
      2.471355     2.463712     2.456069     2.448426     2.440783     2.433139     2.425496     2.417853     2.410210     2.402566
      2.394923     2.387280     2.379637     2.371994     2.364350     2.356707     2.349064     2.341421     2.333777     2.326134
      2.318491     2.310848     2.303205     2.295561     2.287918     2.280275     2.272632     2.264988     2.257345     2.249702
      2.242059     2.234416     2.226772     2.219129     2.211486     2.203843     2.196199     2.188556     2.180913     2.173270
      2.165627     2.157983     2.150340     2.142697     2.135054     2.127410     2.119767     2.112124     2.104481     2.096838
      2.089194     2.081551     2.073908     2.066265     2.058621     2.050978     2.043335     2.035692     2.028049     2.020405
      2.012762     2.005119     1.997476     1.989833     1.982190     1.974546     1.966903     1.959260     1.951617     1.943974
      1.936331     1.928688     1.921045     1.913402     1.905759     1.898115     1.890472     1.882829     1.875186     1.867543
      1.859900     1.852257     1.844614     1.836971     1.829327     1.821684     1.814041     1.806398     1.798755     1.791112
      1.783469     1.775826     1.768183     1.760540     1.752896     1.745253     1.737610     1.729967     1.722324     1.714681
      1.707038     1.699395     1.691752     1.684108     1.676465     1.668822     1.661179     1.653536     1.645893     1.638250
      1.630607     1.622964     1.615321     1.607677     1.600034     1.592391     1.584748     1.577105     1.569462     1.561819
      1.554176     1.546533     1.538890     1.531246     1.523603     1.515960     1.508317     1.500674     1.493031     1.485388
      1.477745     1.470102     1.462458     1.454815     1.447172     1.439529     1.431886     1.424243     1.416600     1.408957
      1.401314     1.393671     1.386027     1.378384     1.370741     1.363098     1.355455     1.347812     1.340169     1.332526
      1.324883     1.317240     1.309596     1.301953     1.294310     1.286667     1.279024     1.271381     1.263738     1.256095
      1.248452     1.240808     1.233165     1.225522     1.217879     1.210236     1.202593     1.194950     1.187307     1.179664
      1.172021     1.164377     1.156734     1.149091     1.141448     1.133805     1.126162     1.118519     1.110876     1.103233
      1.095590     1.087946     1.080303     1.072660     1.065017     1.057374     1.049731     1.042088     1.034445     1.026802
      1.019158     1.011515     1.003872     0.996229     0.988586     0.980943     0.973300     0.965657     0.958014     0.950371
      0.942727     0.935084     0.927441     0.919798     0.912155     0.904512     0.896869     0.889226     0.881583     0.873940
      0.866296     0.858653     0.851010     0.843367     0.835724     0.828081     0.820438     0.812795     0.805152     0.797508
      0.789865     0.782222     0.774579     0.766936     0.759293     0.751650     0.744007     0.736364     0.728721     0.721077
      0.713434     0.705791     0.698148     0.690505     0.682862     0.675219     0.667576     0.659933     0.652290     0.644646
      0.637003     0.629360     0.621717     0.614074     0.606431     0.598788     0.591145     0.583502     0.575858     0.568215
      0.560572     0.552929     0.545286     0.537643     0.530000     0.522357     0.514714     0.507071     0.499427     0.491784
      0.484141     0.476498     0.468855     0.461212     0.453569     0.445925     0.438282     0.430639     0.422996     0.415353
      0.407710     0.400067     0.392424     0.384780     0.377137     0.369494     0.361851     0.354208     0.346565     0.338922
      0.331278     0.323635     0.315992     0.308349     0.300706     0.293063     0.285420     0.277777     0.270133     0.262490
      0.254847     0.247204     0.239561     0.231918     0.224275     0.216631     0.208988     0.201345
 NY phased data points follow
   9.76152E-01  2.04161E-01  1.30889E+00 -2.69203E+00  3.49724E-01  2.27116E+00  2.82419E+00 -7.76128E-01 -9.09721E-01 -2.30013E-01
   2.37219E+00 -8.72584E-01 -6.86531E-01 -1.42991E+00 -3.11348E+00 -2.30360E+00  5.70658E-01 -1.39464E+00 -3.82040E+00 -3.67241E+00
  -1.90495E+00 -1.17423E+00  1.54733E+00 -1.33546E+00 -1.49238E+00  2.90531E+00  8.66874E-01 -4.38370E+00  6.90679E-01 -1.38578E+00
  -4.11479E+00 -4.26752E+00  8.13925E-01 -5.34188E-01 -1.87426E+00 -1.24094E+00 -8.07753E-01 -2.50601E+00 -3.27836E+00  2.26805E-01
  -1.99023E+00 -1.12978E+00  4.66376E+00 -8.16917E-01  6.70023E-01  2.82215E-01 -7.30218E-01 -2.84219E+00 -1.77908E+00 -2.63746E+00
   8.39773E-01 -3.94282E+00 -3.37407E+00  2.08664E+00 -1.44322E+00  2.10505E+00  1.35787E+00 -1.92202E+00 -1.55087E+00 -2.04882E+00
  -4.57861E-01 -1.49985E+00 -3.59593E-01 -1.63169E+00  3.14051E+00  8.01843E-01 -4.12647E-01 -2.69063E+00 -5.07117E-01 -4.51720E+00
  -6.61836E+00  4.03929E-01 -3.53527E+00 -5.94029E+00 -3.04663E+00 -5.47791E+00  9.41211E-01 -2.58288E+00 -3.53823E+00 -2.83353E+00
   9.95673E-02  9.48835E-01 -5.17598E-01  1.36729E+00 -2.94400E+00  5.32949E-01 -5.07614E-02 -5.47369E-01 -1.52633E+00  5.11053E-01
   2.99679E+00 -2.51961E+00 -4.76840E+00 -3.56188E+00 -1.35644E+00 -4.14994E+00 -4.01709E+00 -5.25769E+00 -6.70297E-01 -6.05309E+00
  -3.87658E+00 -2.71343E+00  8.15542E-01 -1.08814E+00 -2.35874E+00 -1.67653E+00 -4.80328E+00  1.39952E-01 -1.54502E+00 -3.57055E+00
  -1.28743E-01 -2.57344E+00 -2.82894E+00 -2.29998E+00 -2.95691E+00 -1.04715E+00 -4.23693E+00 -3.30086E+00 -7.79117E+00 -2.69368E+00
  -2.34510E+00 -2.68775E+00 -5.72214E+00 -4.03341E+00 -1.13122E+00 -3.71296E+00 -3.26677E+00 -4.61597E+00 -1.26440E+00 -8.25724E-01
  -3.92121E+00 -5.63640E+00 -2.47997E+00 -1.35879E+00 -3.35993E+00 -1.36989E+00 -3.69424E+00  2.77541E-01 -4.30093E+00 -1.08115E+00
  -9.25411E-01 -3.44191E+00 -5.27189E+00  1.42148E+00 -3.46979E+00 -3.34015E+00 -2.51399E-01  2.55123E-01 -3.18338E+00 -4.70000E+00
  -7.43243E-01 -1.57632E+00 -3.15692E+00 -2.65733E+00 -1.83465E+00 -3.87953E+00 -2.22197E+00 -5.02935E+00 -2.78095E+00  1.51520E-01
   1.96694E-01 -3.32101E+00 -5.26246E+00 -3.40445E+00 -2.91882E+00 -4.56683E+00  4.46358E-01 -2.68563E+00 -1.09904E+00 -1.37413E+00
  -2.11705E+00  5.05347E-01 -4.34026E+00 -2.85466E+00 -1.03453E-01 -3.72659E+00 -8.37603E-01 -1.02160E+00 -2.35888E+00 -4.09108E+00
  -6.21991E-01 -8.08435E-01  3.05134E-01 -3.11633E+00 -3.45114E+00 -3.48168E+00 -1.31759E+00  3.28012E-01 -9.96495E-01 -3.59289E-01
  -7.96887E-02 -4.68720E+00 -2.82528E-01 -7.24630E+00  2.13823E+00 -6.37362E+00 -2.97419E+00 -3.85581E+00 -1.63731E+00 -2.45325E+00
  -4.05827E+00 -1.35142E+00 -2.44009E+00 -4.31145E+00 -1.47373E+00 -4.05804E+00 -4.06024E+00 -4.02021E+00 -2.25336E+00 -2.63108E+00
  -6.28791E+00 -3.72359E+00 -3.30627E+00 -5.91405E+00 -4.58185E+00 -2.73982E+00 -1.17892E+00  2.70637E+00 -1.81275E+00 -3.95470E+00
   8.11848E-01 -1.63098E+00 -5.57537E+00 -5.47868E+00 -1.00626E+01 -6.32421E+00 -4.62575E+00 -3.12597E+00 -2.60478E+00 -6.29439E+00
  -3.31190E+00 -4.05075E+00 -8.18624E+00 -6.17982E+00 -5.98225E+00 -1.38777E+00 -5.51109E+00 -1.75896E+00 -4.00450E+00 -2.08983E+00
  -4.45201E+00 -3.11356E+00 -4.48841E+00 -3.30726E+00 -5.71657E+00 -2.01491E+00 -5.18858E+00 -2.47440E+00 -9.99080E-01 -6.01750E+00
  -5.16246E+00 -5.70739E+00 -6.73115E+00  8.42400E-01 -3.08806E+00 -3.39936E+00 -1.90211E+00 -4.03760E+00 -2.65960E+00 -7.77781E+00
  -5.31262E+00 -5.80126E+00 -3.11168E+00 -5.39576E+00 -8.31020E+00 -3.87815E+00 -3.96052E+00 -1.17224E+00 -6.13512E+00 -4.00808E+00
  -4.40409E+00 -3.78944E+00 -6.72386E+00 -6.97592E+00 -5.32523E+00 -4.92554E+00 -2.55442E+00 -2.77577E+00 -3.12331E+00 -5.49254E+00
  -4.46030E+00 -5.87397E+00 -3.50947E+00 -6.02051E+00 -4.91106E+00 -3.39671E+00 -1.42673E+00 -5.77149E-01  1.32552E-01  6.22975E-01
   4.20640E+00  3.13829E+00  4.17682E+00 -1.94544E+00  4.94650E+00  4.05185E+00  1.13134E+00  7.01873E+00  5.48562E+00  4.21225E+00
   1.09228E+01  9.73060E+00  1.47163E+01  1.05659E+01  1.65366E+01  1.98034E+01  2.05743E+01  2.12785E+01  1.78278E+01  1.83403E+01
   1.38605E+01  1.22599E+01  1.59456E+01  1.19613E+01  1.20481E+01  9.52792E+00  1.12044E+01  8.72899E+00  1.10264E+01  7.22241E+00
   1.08939E+01  5.17916E+00  2.76237E+00  6.00447E+00  7.40940E-01  3.58570E+00  4.85180E+00  2.94939E+00  5.88737E+00  4.74240E+00
   6.52528E+00  3.00401E+00  4.26997E+00  2.57152E+00  1.33025E+00  4.75605E+00  3.69482E+00  4.95388E+00  1.62096E+00  1.34913E+00
   3.74748E+00  5.38624E+00  2.07137E+00  5.91484E-01 -1.09137E+00  3.85663E+00  1.41279E+00  6.13321E+00  3.56634E+00 -2.16430E-01
   2.36595E+00  1.86536E+00  5.07745E+00  4.23885E+00  3.39252E+00  3.67816E+00 -8.04789E-01 -1.20137E+00  4.93154E+00  2.54268E+00
   4.29610E+00  2.65734E+00  1.74624E+00  5.99490E-01  2.89765E+00  3.02399E+00 -1.09352E-01  4.47652E-01  3.40147E+00  2.65479E+00
   2.08684E-01  3.39208E+00  2.02297E+00  2.68615E+00  3.42670E+00  4.16958E+00  3.51285E+00 -7.39338E-01  2.34049E+00  5.08455E+00
   5.27825E-01  2.43811E+00  5.54412E+00  8.52794E-01  1.80204E+00  2.30996E+00 -2.03307E+00 -1.47425E+00 -5.95394E-01  3.20360E+00
   1.12100E+00 -2.42569E-01 -1.01856E-01  1.30924E+00  5.54471E-01  2.59533E+00 -3.18144E+00  1.74321E+00  1.09866E+00 -1.08228E+00
  -1.69451E+00 -7.61797E-02  1.09672E+00  2.99208E-01  2.83051E+00  7.53268E-01  7.75131E-01  1.26735E+00 -5.98668E-02  2.54183E+00
  -1.74819E+00  1.83091E+00  3.02991E-01  1.59353E+00  2.80449E+00 -1.72529E+00  9.33110E-01  1.39918E-01 -1.32236E-02 -2.41278E+00
  -2.79723E-01 -1.07422E+00  1.23099E+00  1.17774E+00 -3.96281E-01 -6.64608E-01  2.90042E-01  1.15897E+00 -1.40738E+00 -2.11854E+00
   9.91158E-01  4.60765E-01 -1.21517E+00 -2.23873E+00 -1.26523E+00 -5.96330E-01 -3.29425E-02 -4.70475E-01  3.10774E+00 -3.56643E-01
   1.37055E+00 -1.29537E+00 -1.29563E+00 -3.89644E+00 -1.37842E+00 -5.47996E-01  2.41735E+00 -1.96499E+00 -2.37835E+00  1.05595E+00
  -5.76741E-01  9.82619E-01  8.39054E-01 -4.23563E+00  1.23392E+00 -1.34746E+00 -2.46741E-02  1.61232E+00 -6.49626E-01 -5.54582E-01
  -2.06189E+00  1.37703E+00 -1.35070E+00 -1.04720E+00  3.08121E-01 -1.66508E+00  4.62298E-02 -2.31885E+00 -8.12451E-01 -1.91828E+00
  -1.51220E+00  2.05589E+00  1.81360E+00 -2.73396E-01  2.29731E+00  2.04827E-01  9.32786E-02 -6.95494E-01 -5.45337E-01  6.11537E-01
  -1.82327E+00 -9.27877E-01 -1.16011E+00 -1.78521E+00 -6.93312E-01 -2.74359E+00 -3.21193E-01 -2.69420E+00 -1.61078E+00  1.28753E+00
  -1.38290E+00  2.91197E+00  1.28784E+00 -1.06613E+00 -3.72551E+00 -3.59767E+00  1.09481E+00  4.05291E+00
 NY points of the fit to the data follow
   4.60661E-01  2.73223E-01  2.93942E-01 -7.43880E-02 -7.63885E-02 -5.38226E-01 -5.25154E-01 -7.43107E-01 -6.05263E-02 -4.40250E-01
   3.53082E-01 -4.54273E-01  2.61545E-01 -5.23031E-01  2.86321E-02 -1.23732E+00 -3.44802E-01 -1.63298E+00 -4.50363E-01 -1.75250E+00
  -4.59861E-01 -1.73570E+00 -3.48831E-01 -1.80538E+00 -4.37718E-01 -1.89372E+00 -4.44168E-01 -1.81887E+00 -3.61928E-01 -1.66561E+00
  -2.10733E-01 -1.39315E+00 -7.95140E-02 -1.23272E+00 -8.99809E-02 -1.14347E+00 -8.77770E-02 -9.86213E-01 -2.81071E-02 -6.97712E-01
   7.89172E-02 -5.61372E-01  6.94221E-03 -6.51908E-01 -2.72946E-01 -7.90406E-01 -5.45377E-01 -7.89114E-01 -4.24217E-01 -6.16729E-01
  -2.83812E-01 -4.75616E-01 -2.62719E-01 -4.06569E-01 -4.14968E-01 -7.00351E-01 -7.10632E-01 -9.42319E-01 -9.31925E-01 -1.08081E+00
  -1.00577E+00 -1.05089E+00 -9.07421E-01 -9.75316E-01 -8.53098E-01 -9.35615E-01 -8.50478E-01 -9.50330E-01 -8.92427E-01 -9.95461E-01
  -9.24673E-01 -1.02141E+00 -9.65709E-01 -1.07632E+00 -1.04062E+00 -1.16136E+00 -1.13935E+00 -1.26929E+00 -1.27180E+00 -1.39934E+00
  -1.45038E+00 -1.59293E+00 -1.67827E+00 -1.82878E+00 -1.94894E+00 -2.08015E+00 -2.08881E+00 -2.20433E+00 -2.16855E+00 -2.30059E+00
  -2.25900E+00 -2.41337E+00 -2.34552E+00 -2.51519E+00 -2.38451E+00 -2.55502E+00 -2.37433E+00 -2.55250E+00 -2.35490E+00 -2.54561E+00
  -2.35791E+00 -2.55454E+00 -2.38338E+00 -2.58865E+00 -2.42976E+00 -2.63790E+00 -2.49823E+00 -2.70322E+00 -2.58206E+00 -2.71951E+00
  -2.60502E+00 -2.72734E+00 -2.64439E+00 -2.76070E+00 -2.70154E+00 -2.78122E+00 -2.67504E+00 -2.68028E+00 -2.59257E+00 -2.58120E+00
  -2.55884E+00 -2.58363E+00 -2.59704E+00 -2.63321E+00 -2.62676E+00 -2.62624E+00 -2.57932E+00 -2.57995E+00 -2.53354E+00 -2.56176E+00
  -2.51260E+00 -2.56034E+00 -2.48608E+00 -2.54623E+00 -2.45371E+00 -2.52411E+00 -2.43489E+00 -2.52216E+00 -2.45142E+00 -2.55588E+00
  -2.49903E+00 -2.60868E+00 -2.55760E+00 -2.67107E+00 -2.62794E+00 -2.75230E+00 -2.73482E+00 -2.86172E+00 -2.85755E+00 -2.95370E+00
  -2.95317E+00 -3.03786E+00 -3.05321E+00 -3.12852E+00 -3.14981E+00 -3.20152E+00 -3.19739E+00 -3.22747E+00 -3.24364E+00 -3.27385E+00
  -3.32037E+00 -3.35725E+00 -3.40912E+00 -3.44309E+00 -3.48013E+00 -3.50852E+00 -3.53677E+00 -3.56894E+00 -3.61332E+00 -3.64924E+00
  -3.70699E+00 -3.74337E+00 -3.78696E+00 -3.79148E+00 -3.80023E+00 -3.77526E+00 -3.78613E+00 -3.75984E+00 -3.78569E+00 -3.77375E+00
  -3.85370E+00 -3.83627E+00 -3.89063E+00 -3.84859E+00 -3.88349E+00 -3.83538E+00 -3.87916E+00 -3.83871E+00 -3.89406E+00 -3.85626E+00
  -3.90093E+00 -3.85014E+00 -3.86977E+00 -3.80676E+00 -3.80541E+00 -3.73939E+00 -3.73373E+00 -3.67958E+00 -3.67445E+00 -3.62639E+00
  -3.61236E+00 -3.56335E+00 -3.53892E+00 -3.49198E+00 -3.45843E+00 -3.41864E+00 -3.37959E+00 -3.35080E+00 -3.31997E+00 -3.29862E+00
  -3.26747E+00 -3.24951E+00 -3.21155E+00 -3.20050E+00 -3.18776E+00 -3.17385E+00 -3.15544E+00 -3.13122E+00 -3.10315E+00 -3.05737E+00
  -3.00961E+00 -2.97970E+00 -2.96698E+00 -2.96703E+00 -2.97906E+00 -2.99121E+00 -3.00814E+00 -3.01467E+00 -2.98353E+00 -2.98438E+00
  -2.94059E+00 -2.95574E+00 -2.91961E+00 -2.94790E+00 -2.91661E+00 -2.94707E+00 -2.90125E+00 -2.92203E+00 -2.85509E+00 -2.87043E+00
  -2.79919E+00 -2.81824E+00 -2.75712E+00 -2.77730E+00 -2.71931E+00 -2.73145E+00 -2.66836E+00 -2.66617E+00 -2.59514E+00 -2.58187E+00
  -2.50838E+00 -2.48677E+00 -2.41718E+00 -2.39942E+00 -2.34992E+00 -2.32604E+00 -2.27670E+00 -2.23379E+00 -2.17450E+00 -2.10458E+00
  -2.02705E+00 -1.95798E+00 -1.89209E+00 -1.83077E+00 -1.77656E+00 -1.71946E+00 -1.67220E+00 -1.60868E+00 -1.54610E+00 -1.47343E+00
  -1.40133E+00 -1.32303E+00 -1.24364E+00 -1.16195E+00 -1.07978E+00 -9.95965E-01 -9.09911E-01 -8.20107E-01 -7.27059E-01 -6.29256E-01
  -5.27162E-01 -4.18953E-01 -3.04861E-01 -1.82616E-01 -5.19719E-02  8.96220E-02  2.42847E-01  4.10600E-01  5.94027E-01  7.96277E-01
   1.01894E+00  1.26483E+00  1.53570E+00  1.83405E+00  2.16100E+00  2.51830E+00  2.90620E+00  3.32538E+00  3.77549E+00  4.25689E+00
   4.76984E+00  5.31672E+00  5.90187E+00  6.53478E+00  7.23277E+00  8.02810E+00  8.98172E+00  1.02212E+01  1.20308E+01  1.42448E+01
   1.40070E+01  1.44990E+01  1.28860E+01  1.23568E+01  1.01241E+01  9.10744E+00  6.31130E+00  7.40061E+00  5.75994E+00  6.76275E+00
   5.10897E+00  5.32551E+00  3.59301E+00  3.78874E+00  2.78642E+00  3.67039E+00  3.60419E+00  4.75406E+00  5.06552E+00  5.81994E+00
   6.10990E+00  6.19859E+00  6.33223E+00  6.09714E+00  6.40999E+00  6.27045E+00  6.84605E+00  6.66852E+00  7.15195E+00  6.67042E+00
   7.19106E+00  6.45558E+00  6.75940E+00  5.82305E+00  6.05524E+00  5.24047E+00  5.92255E+00  5.28673E+00  6.30635E+00  5.97561E+00
   6.11633E+00  5.25696E+00  4.89906E+00  3.52235E+00  2.72041E+00  1.23005E+00  4.47519E-01  6.71758E-02 -1.55174E-01 -2.96097E-01
  -3.87643E-01 -4.46575E-01 -4.82619E-01 -5.02076E-01 -5.09057E-01 -5.06553E-01 -4.96546E-01 -4.80582E-01 -4.59626E-01 -4.34518E-01
  -4.05723E-01 -3.73724E-01 -3.38696E-01 -3.00893E-01 -2.60311E-01 -2.17090E-01 -1.71157E-01 -1.22617E-01 -7.13617E-02 -1.74802E-02
   3.91325E-02  9.83335E-02  1.60152E-01  2.24335E-01  2.90798E-01  3.59138E-01  4.29088E-01  5.00012E-01  5.71385E-01  6.42293E-01
   7.11947E-01  7.79160E-01  8.42895E-01  9.01739E-01  9.54502E-01  9.99701E-01  1.03619E+00  1.06265E+00  1.07820E+00  1.08191E+00
   1.07340E+00  1.05234E+00  1.01908E+00  9.73991E-01  9.18125E-01  8.52533E-01  7.78877E-01  6.98707E-01  6.14056E-01  5.26675E-01
   4.38643E-01  3.51590E-01  2.67351E-01  1.87187E-01  1.12474E-01  4.39437E-02 -1.75887E-02 -7.19518E-02 -1.18845E-01 -1.58567E-01
  -1.91219E-01 -2.17440E-01 -2.37584E-01 -2.52470E-01 -2.62547E-01 -2.68668E-01 -2.71269E-01 -2.71163E-01 -2.68700E-01 -2.64594E-01
  -2.59073E-01 -2.52733E-01 -2.45687E-01 -2.38436E-01 -2.30990E-01 -2.23759E-01 -2.16668E-01 -2.10063E-01 -2.03812E-01 -1.98225E-01
  -1.93125E-01 -1.88788E-01 -1.85006E-01 -1.82037E-01 -1.79661E-01 -1.78130E-01 -1.77206E-01 -1.77131E-01 -1.77658E-01 -1.79029E-01
  -1.80996E-01 -1.83805E-01 -1.87195E-01 -1.91409E-01 -1.96183E-01 -2.01767E-01 -2.07899E-01 -2.14827E-01 -2.22281E-01 -2.30509E-01
  -2.39241E-01 -2.48731E-01 -2.58709E-01 -2.69429E-01 -2.80612E-01 -2.92511E-01 -3.04849E-01 -3.17887E-01 -3.31344E-01 -3.45478E-01
  -3.60000E-01 -3.75170E-01 -3.90701E-01 -4.06855E-01 -4.23341E-01 -4.40419E-01 -4.57785E-01 -4.75702E-01 -4.93867E-01 -5.12546E-01
  -5.31423E-01 -5.50757E-01 -5.70223E-01 -5.90078E-01 -6.09994E-01 -6.30221E-01 -6.50410E-01 -6.70799E-01 -6.91018E-01 -7.11292E-01
  -7.31230E-01 -7.51028E-01 -7.70247E-01 -7.89027E-01 -8.06865E-01 -8.23823E-01 -8.39277E-01 -8.53116E-01
 NY background values follow
     1.529E+00    1.477E+00    1.426E+00    1.375E+00    1.324E+00    1.273E+00    1.223E+00    1.173E+00    1.123E+00    1.073E+00
     1.023E+00    9.733E-01    9.239E-01    8.748E-01    8.259E-01    7.771E-01    7.286E-01    6.803E-01    6.323E-01    5.844E-01
     5.368E-01    4.893E-01    4.422E-01    3.952E-01    3.485E-01    3.020E-01    2.557E-01    2.097E-01    1.640E-01    1.184E-01
     7.314E-02    2.811E-02   -1.668E-02   -6.121E-02   -1.055E-01   -1.495E-01   -1.933E-01   -2.368E-01   -2.800E-01   -3.230E-01
    -3.658E-01   -4.082E-01   -4.504E-01   -4.923E-01   -5.340E-01   -5.753E-01   -6.164E-01   -6.573E-01   -6.978E-01   -7.381E-01
    -7.781E-01   -8.178E-01   -8.572E-01   -8.963E-01   -9.352E-01   -9.737E-01   -1.012E+00   -1.050E+00   -1.088E+00   -1.125E+00
    -1.162E+00   -1.199E+00   -1.236E+00   -1.272E+00   -1.308E+00   -1.343E+00   -1.379E+00   -1.414E+00   -1.449E+00   -1.483E+00
    -1.517E+00   -1.551E+00   -1.585E+00   -1.618E+00   -1.651E+00   -1.684E+00   -1.716E+00   -1.748E+00   -1.780E+00   -1.811E+00
    -1.842E+00   -1.873E+00   -1.904E+00   -1.934E+00   -1.964E+00   -1.994E+00   -2.023E+00   -2.052E+00   -2.081E+00   -2.109E+00
    -2.137E+00   -2.165E+00   -2.192E+00   -2.220E+00   -2.247E+00   -2.273E+00   -2.299E+00   -2.325E+00   -2.351E+00   -2.377E+00
    -2.402E+00   -2.427E+00   -2.451E+00   -2.475E+00   -2.499E+00   -2.523E+00   -2.546E+00   -2.569E+00   -2.592E+00   -2.614E+00
    -2.636E+00   -2.658E+00   -2.680E+00   -2.701E+00   -2.722E+00   -2.742E+00   -2.762E+00   -2.782E+00   -2.802E+00   -2.821E+00
    -2.840E+00   -2.859E+00   -2.878E+00   -2.896E+00   -2.914E+00   -2.931E+00   -2.948E+00   -2.965E+00   -2.982E+00   -2.998E+00
    -3.014E+00   -3.029E+00   -3.045E+00   -3.060E+00   -3.074E+00   -3.089E+00   -3.103E+00   -3.116E+00   -3.130E+00   -3.143E+00
    -3.156E+00   -3.168E+00   -3.180E+00   -3.192E+00   -3.204E+00   -3.215E+00   -3.225E+00   -3.236E+00   -3.246E+00   -3.256E+00
    -3.266E+00   -3.275E+00   -3.284E+00   -3.292E+00   -3.300E+00   -3.308E+00   -3.316E+00   -3.323E+00   -3.330E+00   -3.336E+00
    -3.343E+00   -3.348E+00   -3.354E+00   -3.359E+00   -3.364E+00   -3.369E+00   -3.373E+00   -3.377E+00   -3.380E+00   -3.383E+00
    -3.386E+00   -3.389E+00   -3.391E+00   -3.392E+00   -3.394E+00   -3.395E+00   -3.396E+00   -3.396E+00   -3.396E+00   -3.396E+00
    -3.395E+00   -3.395E+00   -3.393E+00   -3.392E+00   -3.390E+00   -3.387E+00   -3.385E+00   -3.382E+00   -3.378E+00   -3.374E+00
    -3.370E+00   -3.366E+00   -3.361E+00   -3.356E+00   -3.350E+00   -3.345E+00   -3.338E+00   -3.332E+00   -3.325E+00   -3.318E+00
    -3.310E+00   -3.302E+00   -3.294E+00   -3.285E+00   -3.276E+00   -3.267E+00   -3.257E+00   -3.247E+00   -3.237E+00   -3.226E+00
    -3.215E+00   -3.203E+00   -3.192E+00   -3.180E+00   -3.167E+00   -3.154E+00   -3.141E+00   -3.128E+00   -3.114E+00   -3.100E+00
    -3.085E+00   -3.070E+00   -3.055E+00   -3.040E+00   -3.024E+00   -3.008E+00   -2.991E+00   -2.974E+00   -2.957E+00   -2.940E+00
    -2.922E+00   -2.904E+00   -2.885E+00   -2.867E+00   -2.848E+00   -2.828E+00   -2.809E+00   -2.789E+00   -2.768E+00   -2.748E+00
    -2.727E+00   -2.705E+00   -2.684E+00   -2.662E+00   -2.640E+00   -2.617E+00   -2.595E+00   -2.572E+00   -2.548E+00   -2.525E+00
    -2.501E+00   -2.477E+00   -2.452E+00   -2.427E+00   -2.402E+00   -2.377E+00   -2.351E+00   -2.326E+00   -2.300E+00   -2.273E+00
    -2.247E+00   -2.220E+00   -2.193E+00   -2.165E+00   -2.137E+00   -2.110E+00   -2.081E+00   -2.053E+00   -2.024E+00   -1.996E+00
    -1.967E+00   -1.937E+00   -1.908E+00   -1.878E+00   -1.848E+00   -1.818E+00   -1.787E+00   -1.757E+00   -1.726E+00   -1.695E+00
    -1.664E+00   -1.632E+00   -1.601E+00   -1.569E+00   -1.537E+00   -1.505E+00   -1.472E+00   -1.440E+00   -1.407E+00   -1.374E+00
    -1.341E+00   -1.308E+00   -1.275E+00   -1.242E+00   -1.208E+00   -1.174E+00   -1.140E+00   -1.106E+00   -1.072E+00   -1.038E+00
    -1.004E+00   -9.692E-01   -9.347E-01   -9.000E-01   -8.653E-01   -8.305E-01   -7.956E-01   -7.607E-01   -7.257E-01   -6.906E-01
    -6.556E-01   -6.204E-01   -5.853E-01   -5.502E-01   -5.150E-01   -4.798E-01   -4.447E-01   -4.095E-01   -3.744E-01   -3.393E-01
    -3.042E-01   -2.692E-01   -2.343E-01   -1.994E-01   -1.645E-01   -1.298E-01   -9.509E-02   -6.050E-02   -2.601E-02    8.376E-03
     4.265E-02    7.681E-02    1.108E-01    1.447E-01    1.785E-01    2.121E-01    2.455E-01    2.788E-01    3.119E-01    3.448E-01
     3.776E-01    4.101E-01    4.425E-01    4.746E-01    5.065E-01    5.382E-01    5.697E-01    6.010E-01    6.319E-01    6.627E-01
     6.932E-01    7.234E-01    7.533E-01    7.830E-01    8.124E-01    8.415E-01    8.703E-01    8.988E-01    9.269E-01    9.548E-01
     9.823E-01    1.010E+00    1.036E+00    1.063E+00    1.089E+00    1.115E+00    1.140E+00    1.165E+00    1.190E+00    1.215E+00
     1.238E+00    1.262E+00    1.285E+00    1.308E+00    1.330E+00    1.352E+00    1.374E+00    1.395E+00    1.415E+00    1.436E+00
     1.456E+00    1.475E+00    1.494E+00    1.512E+00    1.530E+00    1.548E+00    1.565E+00    1.581E+00    1.597E+00    1.613E+00
     1.628E+00    1.643E+00    1.657E+00    1.670E+00    1.684E+00    1.696E+00    1.708E+00    1.720E+00    1.731E+00    1.741E+00
     1.751E+00    1.761E+00    1.770E+00    1.778E+00    1.786E+00    1.794E+00    1.801E+00    1.807E+00    1.813E+00    1.818E+00
     1.823E+00    1.827E+00    1.830E+00    1.833E+00    1.836E+00    1.838E+00    1.839E+00    1.840E+00    1.841E+00    1.840E+00
     1.840E+00    1.838E+00    1.836E+00    1.834E+00    1.831E+00    1.827E+00    1.823E+00    1.819E+00    1.814E+00    1.808E+00
     1.801E+00    1.795E+00    1.787E+00    1.779E+00    1.771E+00    1.761E+00    1.752E+00    1.741E+00    1.731E+00    1.719E+00
     1.707E+00    1.695E+00    1.682E+00    1.668E+00    1.654E+00    1.639E+00    1.624E+00    1.608E+00    1.591E+00    1.574E+00
     1.557E+00    1.538E+00    1.520E+00    1.500E+00    1.480E+00    1.460E+00    1.439E+00    1.417E+00    1.395E+00    1.373E+00
     1.349E+00    1.325E+00    1.301E+00    1.276E+00    1.251E+00    1.224E+00    1.198E+00    1.171E+00    1.143E+00    1.115E+00
     1.086E+00    1.056E+00    1.026E+00    9.956E-01    9.644E-01    9.328E-01    9.005E-01    8.677E-01    8.344E-01    8.005E-01
     7.660E-01    7.310E-01    6.955E-01    6.594E-01    6.227E-01    5.855E-01    5.478E-01    5.095E-01    4.707E-01    4.313E-01
     3.914E-01    3.509E-01    3.100E-01    2.684E-01    2.264E-01    1.838E-01    1.407E-01    9.703E-02
 Ala      Conc. = 5.34E+03
