 LCModel (Version 6.3-1L) Copyright: S.W. Provencher.          Ref.: Magn. Reson. Med. 30:672-679 (1993).                
 Slice#2 Row#11 Col#11  K_02_press_1_raw_act
 36 lines in following concentration table = NCONC+1
    Conc.  %SD /Cr+PCr  Metabolite                                         
  120.987  98% 6.9E-02 Ala                                                 
    0.000 999%   0.000 Asp                                                 
  250.523 146%   0.144 Cr                                                  
 1.49E+03  25%   0.856 PCr                                                 
    0.000 999%   0.000 GABA                                                
    0.000 999%   0.000 Glc                                                 
  775.705  32%   0.445 Gln                                                 
 1.76E+03  16%   1.012 Glu                                                 
  532.604   4%   0.306 GPC                                                 
    0.000 999%   0.000 PCh                                                 
  290.170  27%   0.167 GSH                                                 
 1.23E+03  22%   0.705 Ins                                                 
  201.974  66%   0.116 Lac                                                 
 2.74E+03   3%   1.574 NAA                                                 
    0.000 999%   0.000 NAAG                                                
   79.786  36% 4.6E-02 Scyllo                                              
    0.000 999%   0.000 Tau                                                 
 1.31E+03   9%   0.751 -CrCH2                                              
  532.604   4%   0.306 GPC+PCh                                             
 2.74E+03   3%   1.574 NAA+NAAG                                            
 1.74E+03   4%   1.000 Cr+PCr                                              
 2.54E+03  16%   1.457 Glu+Gln                                             
 4.21E+03  17%   2.414 Lip13a                                              
    0.000 999%   0.000 Lip13b                                              
 1.25E+03  32%   0.715 Lip09                                               
 1.59E+03  25%   0.912 MM09                                                
 1.17E+03  21%   0.672 Lip20                                               
 4.04E+03  11%   2.320 MM20                                                
  234.482 143%   0.135 MM12                                                
    0.000 999%   0.000 MM14                                                
    0.000 999%   0.000 MM17                                                
 4.21E+03  17%   2.414 Lip13a+Lip13b                                       
 4.44E+03  13%   2.548 MM14+Lip13a+Lip13b+MM12                             
 2.84E+03   9%   1.627 MM09+Lip09                                          
 5.21E+03   8%   2.992 MM20+Lip20                                          
   6 lines in following misc. output table
  FWHM = 0.054 ppm    S/N =  15                                            
  Data shift = 0.015 ppm                                                   
  Ph:   5 deg       2.9 deg/ppm                                            
  alphaB,S = 8.9E-01,   1.1E+02                                            
   14 spline knots.   Ns = 7(1)                                            
  (10) 5 infls.   ( 5) 1 extrs.                                            
  498 points on ppm-axis = NY
      4.000000     3.992357     3.984714     3.977070     3.969427     3.961784     3.954141     3.946497     3.938854     3.931211
      3.923568     3.915925     3.908281     3.900638     3.892995     3.885352     3.877708     3.870065     3.862422     3.854779
      3.847136     3.839492     3.831849     3.824206     3.816563     3.808919     3.801276     3.793633     3.785990     3.778347
      3.770703     3.763060     3.755417     3.747774     3.740130     3.732487     3.724844     3.717201     3.709558     3.701914
      3.694271     3.686628     3.678985     3.671341     3.663698     3.656055     3.648412     3.640769     3.633125     3.625482
      3.617839     3.610196     3.602552     3.594909     3.587266     3.579623     3.571980     3.564336     3.556693     3.549050
      3.541407     3.533763     3.526120     3.518477     3.510834     3.503191     3.495547     3.487904     3.480261     3.472618
      3.464974     3.457331     3.449688     3.442045     3.434402     3.426758     3.419115     3.411472     3.403829     3.396185
      3.388542     3.380899     3.373256     3.365613     3.357969     3.350326     3.342683     3.335040     3.327396     3.319753
      3.312110     3.304467     3.296824     3.289180     3.281537     3.273894     3.266251     3.258607     3.250964     3.243321
      3.235678     3.228034     3.220391     3.212748     3.205105     3.197462     3.189818     3.182175     3.174532     3.166889
      3.159245     3.151602     3.143959     3.136316     3.128673     3.121029     3.113386     3.105743     3.098100     3.090456
      3.082813     3.075170     3.067527     3.059884     3.052240     3.044597     3.036954     3.029311     3.021667     3.014024
      3.006381     2.998738     2.991095     2.983451     2.975808     2.968165     2.960522     2.952878     2.945235     2.937592
      2.929949     2.922306     2.914662     2.907019     2.899376     2.891733     2.884089     2.876446     2.868803     2.861160
      2.853517     2.845873     2.838230     2.830587     2.822944     2.815300     2.807657     2.800014     2.792371     2.784728
      2.777084     2.769441     2.761798     2.754155     2.746511     2.738868     2.731225     2.723582     2.715939     2.708295
      2.700652     2.693009     2.685366     2.677722     2.670079     2.662436     2.654793     2.647150     2.639506     2.631863
      2.624220     2.616577     2.608933     2.601290     2.593647     2.586004     2.578361     2.570717     2.563074     2.555431
      2.547788     2.540144     2.532501     2.524858     2.517215     2.509572     2.501928     2.494285     2.486642     2.478999
      2.471355     2.463712     2.456069     2.448426     2.440783     2.433139     2.425496     2.417853     2.410210     2.402566
      2.394923     2.387280     2.379637     2.371994     2.364350     2.356707     2.349064     2.341421     2.333777     2.326134
      2.318491     2.310848     2.303205     2.295561     2.287918     2.280275     2.272632     2.264988     2.257345     2.249702
      2.242059     2.234416     2.226772     2.219129     2.211486     2.203843     2.196199     2.188556     2.180913     2.173270
      2.165627     2.157983     2.150340     2.142697     2.135054     2.127410     2.119767     2.112124     2.104481     2.096838
      2.089194     2.081551     2.073908     2.066265     2.058621     2.050978     2.043335     2.035692     2.028049     2.020405
      2.012762     2.005119     1.997476     1.989833     1.982190     1.974546     1.966903     1.959260     1.951617     1.943974
      1.936331     1.928688     1.921045     1.913402     1.905759     1.898115     1.890472     1.882829     1.875186     1.867543
      1.859900     1.852257     1.844614     1.836971     1.829327     1.821684     1.814041     1.806398     1.798755     1.791112
      1.783469     1.775826     1.768183     1.760540     1.752896     1.745253     1.737610     1.729967     1.722324     1.714681
      1.707038     1.699395     1.691752     1.684108     1.676465     1.668822     1.661179     1.653536     1.645893     1.638250
      1.630607     1.622964     1.615321     1.607677     1.600034     1.592391     1.584748     1.577105     1.569462     1.561819
      1.554176     1.546533     1.538890     1.531246     1.523603     1.515960     1.508317     1.500674     1.493031     1.485388
      1.477745     1.470102     1.462458     1.454815     1.447172     1.439529     1.431886     1.424243     1.416600     1.408957
      1.401314     1.393671     1.386027     1.378384     1.370741     1.363098     1.355455     1.347812     1.340169     1.332526
      1.324883     1.317240     1.309596     1.301953     1.294310     1.286667     1.279024     1.271381     1.263738     1.256095
      1.248452     1.240808     1.233165     1.225522     1.217879     1.210236     1.202593     1.194950     1.187307     1.179664
      1.172021     1.164377     1.156734     1.149091     1.141448     1.133805     1.126162     1.118519     1.110876     1.103233
      1.095590     1.087946     1.080303     1.072660     1.065017     1.057374     1.049731     1.042088     1.034445     1.026802
      1.019158     1.011515     1.003872     0.996229     0.988586     0.980943     0.973300     0.965657     0.958014     0.950371
      0.942727     0.935084     0.927441     0.919798     0.912155     0.904512     0.896869     0.889226     0.881583     0.873940
      0.866296     0.858653     0.851010     0.843367     0.835724     0.828081     0.820438     0.812795     0.805152     0.797508
      0.789865     0.782222     0.774579     0.766936     0.759293     0.751650     0.744007     0.736364     0.728721     0.721077
      0.713434     0.705791     0.698148     0.690505     0.682862     0.675219     0.667576     0.659933     0.652290     0.644646
      0.637003     0.629360     0.621717     0.614074     0.606431     0.598788     0.591145     0.583502     0.575858     0.568215
      0.560572     0.552929     0.545286     0.537643     0.530000     0.522357     0.514714     0.507071     0.499427     0.491784
      0.484141     0.476498     0.468855     0.461212     0.453569     0.445925     0.438282     0.430639     0.422996     0.415353
      0.407710     0.400067     0.392424     0.384780     0.377137     0.369494     0.361851     0.354208     0.346565     0.338922
      0.331278     0.323635     0.315992     0.308349     0.300706     0.293063     0.285420     0.277777     0.270133     0.262490
      0.254847     0.247204     0.239561     0.231918     0.224275     0.216631     0.208988     0.201345
 NY phased data points follow
   1.00668E+01  6.02350E+00  7.46060E+00  8.69700E+00  7.47952E+00  1.50921E+01  9.38007E+00  1.31297E+01  1.50350E+01  1.58945E+01
   1.78488E+01  2.00814E+01  2.26035E+01  1.86580E+01  1.88877E+01  1.51854E+01  1.76351E+01  1.12034E+01  1.40787E+01  1.26097E+01
   1.08146E+01  8.89979E+00  8.54364E+00  1.22034E+01  8.86341E+00  9.57252E+00  8.65202E+00  9.19176E+00  1.01938E+01  9.26276E+00
   1.32630E+01  1.28594E+01  1.27687E+01  1.22852E+01  1.39488E+01  1.20460E+01  1.29775E+01  1.33794E+01  1.38062E+01  1.44766E+01
   1.17689E+01  1.12935E+01  1.43298E+01  1.42925E+01  1.42943E+01  1.76123E+01  1.63615E+01  1.69643E+01  1.83127E+01  1.72343E+01
   1.67583E+01  1.58684E+01  1.37693E+01  1.29116E+01  1.14444E+01  1.11982E+01  1.49398E+01  1.19569E+01  1.02709E+01  1.06621E+01
   5.39115E+00  5.60239E+00  4.40990E+00  2.10921E+00  2.87802E+00  4.57194E+00  1.92947E+00  2.62103E+00  1.27764E+00  2.49024E+00
   3.72428E+00  1.26535E+00  2.60554E+00  5.33294E+00  3.30720E+00  2.63226E+00  1.63615E+00  3.63062E+00  1.51565E+00  3.28577E+00
   2.34710E+00  2.89336E+00  5.89057E+00  4.30477E+00  3.19735E+00  3.66740E+00  5.02986E+00  3.80014E+00  4.93847E+00  4.90202E+00
   1.88341E+00  5.85540E+00  4.87044E+00  3.64926E+00  8.85499E+00  1.10338E+01  1.10253E+01  1.53816E+01  1.42381E+01  1.91331E+01
   2.73685E+01  3.61791E+01  4.14936E+01  4.51142E+01  4.57328E+01  4.22493E+01  3.22126E+01  2.68069E+01  2.12825E+01  1.67033E+01
   1.12075E+01  1.00907E+01  7.27320E+00  6.47106E+00  5.18830E+00  6.27207E+00  3.73425E+00  6.61971E+00  7.58249E+00  9.78094E+00
   9.09957E+00  8.02531E+00  1.19771E+01  2.03808E+01  2.81138E+01  4.26895E+01  5.15819E+01  5.65464E+01  5.65566E+01  4.70885E+01
   4.22888E+01  3.50018E+01  2.67777E+01  2.32782E+01  1.33020E+01  1.22179E+01  7.78596E+00  9.37690E+00  4.53550E+00  6.50190E+00
   6.70829E+00  8.43373E+00  5.09158E+00  4.44205E+00  3.22093E+00  6.77354E+00  5.19659E+00  2.48164E+00  1.50446E+00  4.99176E+00
   3.78336E+00  4.04048E+00  4.81167E+00  3.42659E+00  6.86640E-01  2.73924E+00  9.71749E-01  4.64064E+00  2.25165E+00 -1.98234E-01
   8.00281E-01 -2.97018E+00 -1.42110E+00 -1.06934E+00 -1.53930E+00  3.73110E-02 -2.69340E+00 -6.73512E+00 -8.36906E+00 -1.15112E+01
  -9.87988E+00 -1.00789E+01 -1.37372E+01 -1.84517E+01 -1.78016E+01 -2.14178E+01 -1.72776E+01 -1.60190E+01 -1.51048E+01 -1.53679E+01
  -1.43809E+01 -1.22799E+01 -8.67647E+00 -1.13483E+01 -1.09232E+01 -1.18903E+01 -9.04111E+00 -1.31100E+01 -1.06149E+01 -9.64496E+00
  -2.89820E+00 -6.70954E+00 -3.11302E+00 -2.29939E+00 -8.46935E+00 -9.17486E+00 -1.01371E+01 -1.37784E+01 -9.23586E+00 -1.06750E+01
  -8.66205E+00 -4.87453E+00 -2.11607E+00 -2.93272E+00  2.32431E+00 -2.70378E+00 -6.43234E-01 -1.98474E+00 -6.17530E+00 -5.50576E+00
  -2.99427E+00  2.60780E+00  4.41784E+00  7.80071E+00  1.04730E+01  1.63216E+01  1.10608E+01  7.32447E+00  7.16614E+00  2.38119E+00
  -2.49850E+00 -2.42729E+00 -5.36954E+00 -8.88746E-01  2.43686E+00  2.15787E+00  7.14515E+00  5.68624E+00  3.38428E+00  5.64655E+00
   8.89278E+00  3.40817E+00  3.89618E+00  7.01487E+00  6.36457E+00  7.99320E+00  5.90636E+00  5.75598E+00  7.36810E+00  2.23707E+00
   9.07172E-01  2.35941E+00  1.71150E-01  7.97226E+00  4.09848E+00  8.19485E+00  8.27205E+00  1.09987E+01  1.36993E+01  1.30522E+01
   1.77147E+01  1.78568E+01  2.68434E+01  2.86513E+01  3.16068E+01  3.46922E+01  4.52088E+01  6.68885E+01  8.94860E+01  1.02138E+02
   1.03901E+02  9.36611E+01  7.87329E+01  6.55590E+01  5.03913E+01  3.90024E+01  2.92268E+01  2.06616E+01  1.35129E+01  5.80812E+00
   6.97749E+00  3.79736E+00  2.78319E+00  3.46883E-01  6.31978E-01  3.13509E+00  1.96303E+00  6.92504E-01  8.51256E-01  2.22556E-01
   2.01534E+00  3.79576E+00 -2.51400E+00 -3.16358E+00 -2.59388E+00 -8.85706E-01 -3.32230E+00 -1.57602E+00 -4.09999E+00 -1.07373E-01
  -2.97509E+00 -2.09082E+00 -2.74513E+00 -9.05226E-01 -2.01475E+00 -1.94956E+00 -4.62972E+00 -6.68780E+00 -3.24370E+00 -5.14943E+00
  -3.95277E+00 -3.76479E+00 -4.38811E+00 -2.41143E+00 -7.20316E+00 -2.07855E+00 -4.82640E+00 -5.31083E+00 -1.23722E+00 -2.56097E+00
  -1.20365E+00 -2.86306E+00 -2.24027E+00  6.77724E-01 -3.04335E+00 -1.56275E+00 -4.10274E+00 -2.35294E+00 -1.93205E+00 -3.82166E+00
  -4.39436E+00 -6.49620E+00 -6.09426E+00 -5.99609E+00 -6.76615E+00 -4.38785E+00 -3.18948E+00 -5.24043E+00 -5.15705E+00 -2.18646E+00
  -4.30337E+00  5.98979E-01  5.42868E-03  1.88151E+00  1.01052E+00  3.47182E+00  5.58711E+00  6.67136E+00  6.00012E+00  9.39772E+00
   1.13990E+01  1.27358E+01  9.90206E+00  1.41717E+01  1.19456E+01  1.31497E+01  1.24366E+01  1.22162E+01  1.35776E+01  1.01120E+01
   1.09570E+01  1.04458E+01  1.04494E+01  1.08349E+01  1.12355E+01  7.72504E+00  1.08284E+01  1.07979E+01  9.20380E+00  9.94973E+00
   9.64998E+00  8.54786E+00  9.59937E+00  8.19696E+00  1.05047E+01  1.22908E+01  1.20590E+01  9.08426E+00  1.00727E+01  1.17636E+01
   1.35027E+01  8.88973E+00  6.15364E+00  9.35239E+00  5.18301E+00  6.62217E+00  5.69220E+00  7.93759E+00  8.45031E+00  4.57626E+00
   5.11477E+00  7.75538E+00  3.95028E+00  7.08456E+00  5.00850E+00  8.17079E+00  9.55259E+00  8.17925E+00  7.69441E+00  9.21038E+00
   1.19645E+01  1.45679E+01  1.06335E+01  1.38231E+01  1.28987E+01  1.49267E+01  1.41465E+01  1.51362E+01  1.54830E+01  1.26646E+01
   1.73021E+01  1.49164E+01  1.28696E+01  1.47983E+01  1.37772E+01  1.79971E+01  1.73437E+01  1.70044E+01  1.28499E+01  1.68718E+01
   1.77803E+01  1.90419E+01  1.26805E+01  1.20448E+01  1.40447E+01  1.31692E+01  1.10727E+01  6.23173E+00  1.12294E+01  5.31069E+00
   7.29675E+00  9.22659E+00  7.64203E+00  5.89098E+00  6.97791E+00  3.88742E+00  3.67470E+00  6.09876E+00  5.36656E+00  4.51263E+00
   3.49340E+00  4.48393E+00  6.01684E+00  4.86626E+00  6.89047E+00  1.72127E+00  4.96881E+00  3.07880E+00  1.20481E+00  2.21765E+00
   6.39047E-01  5.32237E+00  5.45728E+00  3.08088E+00  1.91852E+00  2.15558E+00  5.46728E+00  2.22622E+00  2.94143E+00  4.40087E+00
   3.09782E+00  1.85585E+00  6.91769E-02  3.29300E+00  1.22694E+00  4.02879E+00  3.71180E+00  3.60795E+00  4.34801E+00  2.87830E+00
   3.32938E+00  9.46507E-01  2.02301E+00  2.85814E+00 -2.52298E+00  2.15633E+00  2.72314E+00  2.41046E+00  1.01210E+00  1.23456E+00
   1.94268E+00  3.21114E+00  2.76258E+00  3.81603E+00  2.50323E+00  1.68648E+00  4.24713E+00 -1.43290E+00  2.85426E+00  6.89159E-01
   2.32771E+00  2.65830E+00  3.89360E+00  3.47216E+00  3.62178E+00  3.96533E+00  5.87933E-02  1.89674E+00  2.72433E+00  1.22569E+00
   2.78193E+00  6.15800E-01  9.26695E-01  3.88752E+00  3.70763E+00 -1.78890E+00  6.71327E-01  5.55073E+00
 NY points of the fit to the data follow
   1.04580E+01  9.86854E+00  9.24539E+00  9.44167E+00  9.99004E+00  1.03950E+01  1.09045E+01  1.22634E+01  1.47307E+01  1.76348E+01
   1.99540E+01  2.09341E+01  2.05508E+01  1.93433E+01  1.78943E+01  1.66346E+01  1.56517E+01  1.47084E+01  1.32506E+01  1.21118E+01
   1.14545E+01  1.09468E+01  1.05191E+01  1.02096E+01  9.81602E+00  9.29589E+00  9.17723E+00  9.99423E+00  1.17507E+01  1.39224E+01
   1.59196E+01  1.71686E+01  1.73038E+01  1.63969E+01  1.47612E+01  1.29210E+01  1.14097E+01  1.02024E+01  9.24731E+00  8.82335E+00
   9.05654E+00  9.67252E+00  1.04220E+01  1.15077E+01  1.31184E+01  1.49223E+01  1.63106E+01  1.67379E+01  1.60503E+01  1.45881E+01
   1.27469E+01  1.09137E+01  9.48789E+00  8.51006E+00  7.72804E+00  7.11774E+00  6.91515E+00  7.20984E+00  7.72752E+00  8.11297E+00
   8.16736E+00  7.81024E+00  7.13565E+00  6.32908E+00  5.63913E+00  5.25934E+00  5.13214E+00  5.12243E+00  5.23496E+00  5.47514E+00
   5.75826E+00  5.98013E+00  6.04272E+00  5.92566E+00  5.67994E+00  5.36278E+00  5.05004E+00  4.77526E+00  4.56247E+00  4.46333E+00
   4.48570E+00  4.50003E+00  4.60343E+00  4.93262E+00  5.35083E+00  5.52277E+00  5.24910E+00  4.59347E+00  3.79971E+00  3.15482E+00
   2.80545E+00  2.70533E+00  2.76963E+00  2.88593E+00  3.01956E+00  3.59603E+00  5.90232E+00  9.30365E+00  1.29395E+01  1.85705E+01
   2.72806E+01  3.73102E+01  4.51856E+01  4.82756E+01  4.61483E+01  4.03871E+01  3.32827E+01  2.64982E+01  2.07119E+01  1.57342E+01
   1.09687E+01  6.39195E+00  3.52057E+00  2.59032E+00  2.27903E+00  2.16540E+00  2.15278E+00  2.22787E+00  2.45503E+00  3.12436E+00
   5.50232E+00  9.73337E+00  1.41601E+01  2.02813E+01  2.98264E+01  4.15127E+01  5.15488E+01  5.65250E+01  5.53537E+01  4.94761E+01
   4.15641E+01  3.37227E+01  2.68391E+01  2.07804E+01  1.48694E+01  8.92597E+00  4.56383E+00  2.97885E+00  2.60261E+00  2.65973E+00
   2.84418E+00  2.97265E+00  3.01560E+00  3.00744E+00  2.93913E+00  2.81917E+00  2.67774E+00  2.50201E+00  2.29432E+00  2.08258E+00
   1.88142E+00  1.72467E+00  1.59917E+00  1.43837E+00  1.18637E+00  9.56129E-01  6.93391E-01  2.92104E-01 -2.58775E-01 -9.33634E-01
  -1.41231E+00 -1.48466E+00 -1.28738E+00 -1.17687E+00 -1.41459E+00 -2.02518E+00 -2.84690E+00 -3.67342E+00 -4.39147E+00 -5.10090E+00
  -5.81129E+00 -6.51596E+00 -7.34152E+00 -8.17847E+00 -8.75904E+00 -8.90402E+00 -8.71471E+00 -8.50112E+00 -8.49362E+00 -8.69231E+00
  -8.92744E+00 -8.91908E+00 -8.75907E+00 -8.61718E+00 -8.47450E+00 -8.19718E+00 -7.52052E+00 -6.36617E+00 -4.94352E+00 -3.61958E+00
  -2.75798E+00 -2.46711E+00 -2.48517E+00 -2.58674E+00 -2.74269E+00 -3.05677E+00 -3.41310E+00 -3.42888E+00 -3.00255E+00 -2.13611E+00
  -9.65492E-01  2.66575E-01  1.09767E+00  1.13813E+00  4.48312E-01 -1.06411E+00 -3.28724E+00 -5.63489E+00 -7.41893E+00 -8.06719E+00
  -7.73318E+00 -6.43748E+00 -4.00227E+00 -7.64470E-01  2.25380E+00  3.97081E+00  4.03611E+00  2.81329E+00  5.56809E-01 -2.45120E+00
  -5.14153E+00 -6.66944E+00 -6.74090E+00 -5.41856E+00 -3.22002E+00 -5.29056E-01  2.01498E+00  3.92190E+00  5.05447E+00  5.65550E+00
   6.03504E+00  6.08150E+00  5.79619E+00  5.60346E+00  5.85890E+00  6.41987E+00  7.09179E+00  7.71061E+00  8.03429E+00  7.92021E+00
   7.42893E+00  6.95860E+00  6.94667E+00  7.52482E+00  8.49647E+00  9.64945E+00  1.09142E+01  1.21274E+01  1.32025E+01  1.42066E+01
   1.53352E+01  1.66083E+01  1.90207E+01  2.52550E+01  3.20999E+01  3.92060E+01  5.08660E+01  6.83381E+01  8.67669E+01  9.91799E+01
   1.01500E+02  9.41272E+01  8.09162E+01  6.62594E+01  5.29282E+01  4.16856E+01  3.17516E+01  2.17305E+01  1.22492E+01  7.20256E+00
   5.24644E+00  4.07043E+00  3.25813E+00  2.68553E+00  2.20119E+00  1.70866E+00  1.21965E+00  7.24359E-01  2.32932E-01 -2.34623E-01
  -6.68534E-01 -1.08064E+00 -1.45348E+00 -1.76862E+00 -2.03541E+00 -2.27290E+00 -2.48620E+00 -2.67481E+00 -2.83530E+00 -2.97711E+00
  -3.10748E+00 -3.22361E+00 -3.32255E+00 -3.40597E+00 -3.47355E+00 -3.52797E+00 -3.56876E+00 -3.60005E+00 -3.62173E+00 -3.63384E+00
  -3.63502E+00 -3.62794E+00 -3.61236E+00 -3.59051E+00 -3.56140E+00 -3.52641E+00 -3.48409E+00 -3.43569E+00 -3.37954E+00 -3.31632E+00
  -3.24408E+00 -3.16365E+00 -3.07274E+00 -2.97180E+00 -2.85837E+00 -2.73180E+00 -2.58810E+00 -2.42472E+00 -2.23336E+00 -1.99843E+00
  -1.69806E+00 -1.40164E+00 -1.11109E+00 -7.68095E-01 -4.17497E-01 -1.92008E-01 -1.85379E-01 -3.78431E-01 -5.98380E-01 -7.09188E-01
  -6.91021E-01 -4.79588E-01  9.70103E-03  7.75666E-01  1.71710E+00  2.71655E+00  3.70979E+00  4.60298E+00  5.38049E+00  6.12561E+00
   6.93704E+00  7.76722E+00  8.50852E+00  9.23697E+00  9.99579E+00  1.06331E+01  1.09016E+01  1.07423E+01  1.03930E+01  1.00669E+01
   9.83314E+00  9.83296E+00  1.02048E+01  1.09230E+01  1.17874E+01  1.25782E+01  1.32038E+01  1.35852E+01  1.36474E+01  1.34861E+01
   1.32006E+01  1.28324E+01  1.23617E+01  1.17546E+01  1.11248E+01  1.05666E+01  1.00454E+01  9.54357E+00  9.05994E+00  8.59569E+00
   8.15606E+00  7.74466E+00  7.36731E+00  7.02715E+00  6.72923E+00  6.47616E+00  6.27267E+00  6.12097E+00  6.02511E+00  5.98646E+00
   6.00841E+00  6.09199E+00  6.24023E+00  6.45344E+00  6.73341E+00  7.07890E+00  7.49005E+00  7.96386E+00  8.49829E+00  9.08744E+00
   9.72588E+00  1.04042E+01  1.11137E+01  1.18418E+01  1.25767E+01  1.33029E+01  1.40064E+01  1.46704E+01  1.52809E+01  1.58223E+01
   1.62825E+01  1.66487E+01  1.69129E+01  1.70675E+01  1.71101E+01  1.70394E+01  1.68588E+01  1.65725E+01  1.61893E+01  1.57183E+01
   1.51722E+01  1.45626E+01  1.39039E+01  1.32081E+01  1.24894E+01  1.17588E+01  1.10288E+01  1.03079E+01  9.60560E+00  8.92760E+00
   8.28041E+00  7.66711E+00  7.09153E+00  6.55416E+00  6.05651E+00  5.59729E+00  5.17673E+00  4.79248E+00  4.44381E+00  4.12759E+00
   3.84259E+00  3.58555E+00  3.35537E+00  3.14890E+00  2.96501E+00  2.80060E+00  2.65478E+00  2.52489E+00  2.41046E+00  2.30906E+00
   2.22032E+00  2.14196E+00  2.07394E+00  2.01439E+00  1.96353E+00  1.91955E+00  1.88268E+00  1.85125E+00  1.82577E+00  1.80485E+00
   1.78905E+00  1.77694E+00  1.76905E+00  1.76410E+00  1.76285E+00  1.76414E+00  1.76870E+00  1.77526E+00  1.78456E+00  1.79547E+00
   1.80891E+00  1.82381E+00  1.84094E+00  1.85915E+00  1.87927E+00  1.90031E+00  1.92320E+00  1.94692E+00  1.97225E+00  1.99811E+00
   2.02543E+00  2.05326E+00  2.08254E+00  2.11225E+00  2.14319E+00  2.17436E+00  2.20671E+00  2.23933E+00  2.27314E+00  2.30710E+00
   2.34205E+00  2.37704E+00  2.41305E+00  2.44917E+00  2.48629E+00  2.52338E+00  2.56132E+00  2.59919E+00  2.63800E+00  2.67681E+00
   2.71647E+00  2.75599E+00  2.79628E+00  2.83647E+00  2.87753E+00  2.91852E+00  2.96028E+00  3.00186E+00
 NY background values follow
     6.722E+00    6.659E+00    6.597E+00    6.535E+00    6.472E+00    6.410E+00    6.347E+00    6.285E+00    6.222E+00    6.160E+00
     6.098E+00    6.035E+00    5.973E+00    5.910E+00    5.848E+00    5.785E+00    5.723E+00    5.660E+00    5.598E+00    5.535E+00
     5.472E+00    5.410E+00    5.347E+00    5.284E+00    5.222E+00    5.159E+00    5.096E+00    5.033E+00    4.970E+00    4.907E+00
     4.844E+00    4.781E+00    4.718E+00    4.655E+00    4.591E+00    4.528E+00    4.464E+00    4.401E+00    4.337E+00    4.274E+00
     4.210E+00    4.146E+00    4.082E+00    4.018E+00    3.954E+00    3.890E+00    3.826E+00    3.762E+00    3.697E+00    3.633E+00
     3.568E+00    3.504E+00    3.439E+00    3.374E+00    3.309E+00    3.244E+00    3.179E+00    3.114E+00    3.049E+00    2.983E+00
     2.918E+00    2.852E+00    2.787E+00    2.721E+00    2.655E+00    2.590E+00    2.524E+00    2.458E+00    2.392E+00    2.326E+00
     2.259E+00    2.193E+00    2.127E+00    2.060E+00    1.994E+00    1.927E+00    1.860E+00    1.794E+00    1.727E+00    1.660E+00
     1.593E+00    1.526E+00    1.459E+00    1.392E+00    1.324E+00    1.257E+00    1.190E+00    1.122E+00    1.055E+00    9.869E-01
     9.192E-01    8.515E-01    7.837E-01    7.158E-01    6.479E-01    5.799E-01    5.118E-01    4.438E-01    3.756E-01    3.074E-01
     2.392E-01    1.709E-01    1.026E-01    3.431E-02   -3.404E-02   -1.024E-01   -1.708E-01   -2.393E-01   -3.077E-01   -3.761E-01
    -4.446E-01   -5.131E-01   -5.816E-01   -6.500E-01   -7.185E-01   -7.870E-01   -8.554E-01   -9.239E-01   -9.923E-01   -1.061E+00
    -1.129E+00   -1.197E+00   -1.266E+00   -1.334E+00   -1.402E+00   -1.471E+00   -1.539E+00   -1.607E+00   -1.675E+00   -1.743E+00
    -1.811E+00   -1.879E+00   -1.947E+00   -2.015E+00   -2.083E+00   -2.150E+00   -2.218E+00   -2.286E+00   -2.353E+00   -2.421E+00
    -2.488E+00   -2.555E+00   -2.622E+00   -2.689E+00   -2.755E+00   -2.822E+00   -2.888E+00   -2.954E+00   -3.019E+00   -3.085E+00
    -3.150E+00   -3.215E+00   -3.279E+00   -3.343E+00   -3.407E+00   -3.471E+00   -3.534E+00   -3.596E+00   -3.659E+00   -3.721E+00
    -3.782E+00   -3.843E+00   -3.904E+00   -3.964E+00   -4.023E+00   -4.082E+00   -4.141E+00   -4.198E+00   -4.256E+00   -4.313E+00
    -4.369E+00   -4.424E+00   -4.479E+00   -4.534E+00   -4.587E+00   -4.640E+00   -4.692E+00   -4.744E+00   -4.795E+00   -4.845E+00
    -4.894E+00   -4.943E+00   -4.991E+00   -5.038E+00   -5.084E+00   -5.130E+00   -5.174E+00   -5.218E+00   -5.262E+00   -5.304E+00
    -5.346E+00   -5.387E+00   -5.428E+00   -5.467E+00   -5.506E+00   -5.545E+00   -5.582E+00   -5.619E+00   -5.655E+00   -5.691E+00
    -5.726E+00   -5.760E+00   -5.794E+00   -5.827E+00   -5.859E+00   -5.891E+00   -5.922E+00   -5.952E+00   -5.982E+00   -6.012E+00
    -6.040E+00   -6.068E+00   -6.096E+00   -6.123E+00   -6.149E+00   -6.175E+00   -6.200E+00   -6.225E+00   -6.249E+00   -6.273E+00
    -6.296E+00   -6.318E+00   -6.340E+00   -6.362E+00   -6.383E+00   -6.404E+00   -6.424E+00   -6.443E+00   -6.462E+00   -6.481E+00
    -6.499E+00   -6.516E+00   -6.534E+00   -6.550E+00   -6.566E+00   -6.582E+00   -6.597E+00   -6.612E+00   -6.626E+00   -6.640E+00
    -6.653E+00   -6.665E+00   -6.678E+00   -6.689E+00   -6.700E+00   -6.711E+00   -6.721E+00   -6.731E+00   -6.740E+00   -6.749E+00
    -6.757E+00   -6.764E+00   -6.771E+00   -6.778E+00   -6.784E+00   -6.790E+00   -6.795E+00   -6.799E+00   -6.803E+00   -6.807E+00
    -6.810E+00   -6.812E+00   -6.814E+00   -6.815E+00   -6.816E+00   -6.817E+00   -6.817E+00   -6.816E+00   -6.815E+00   -6.813E+00
    -6.811E+00   -6.808E+00   -6.804E+00   -6.801E+00   -6.796E+00   -6.791E+00   -6.786E+00   -6.780E+00   -6.773E+00   -6.766E+00
    -6.759E+00   -6.750E+00   -6.742E+00   -6.733E+00   -6.723E+00   -6.713E+00   -6.702E+00   -6.691E+00   -6.679E+00   -6.667E+00
    -6.654E+00   -6.641E+00   -6.627E+00   -6.613E+00   -6.598E+00   -6.583E+00   -6.567E+00   -6.551E+00   -6.534E+00   -6.517E+00
    -6.499E+00   -6.481E+00   -6.462E+00   -6.443E+00   -6.423E+00   -6.403E+00   -6.383E+00   -6.361E+00   -6.340E+00   -6.317E+00
    -6.295E+00   -6.272E+00   -6.248E+00   -6.224E+00   -6.199E+00   -6.174E+00   -6.149E+00   -6.123E+00   -6.096E+00   -6.069E+00
    -6.042E+00   -6.014E+00   -5.986E+00   -5.957E+00   -5.928E+00   -5.898E+00   -5.868E+00   -5.837E+00   -5.806E+00   -5.775E+00
    -5.743E+00   -5.711E+00   -5.678E+00   -5.645E+00   -5.611E+00   -5.578E+00   -5.543E+00   -5.509E+00   -5.473E+00   -5.438E+00
    -5.402E+00   -5.366E+00   -5.329E+00   -5.292E+00   -5.255E+00   -5.217E+00   -5.179E+00   -5.141E+00   -5.102E+00   -5.063E+00
    -5.023E+00   -4.983E+00   -4.943E+00   -4.903E+00   -4.862E+00   -4.821E+00   -4.779E+00   -4.738E+00   -4.696E+00   -4.653E+00
    -4.611E+00   -4.568E+00   -4.524E+00   -4.481E+00   -4.437E+00   -4.393E+00   -4.348E+00   -4.304E+00   -4.259E+00   -4.214E+00
    -4.168E+00   -4.122E+00   -4.076E+00   -4.030E+00   -3.984E+00   -3.937E+00   -3.890E+00   -3.843E+00   -3.796E+00   -3.748E+00
    -3.700E+00   -3.652E+00   -3.604E+00   -3.556E+00   -3.507E+00   -3.458E+00   -3.409E+00   -3.360E+00   -3.310E+00   -3.261E+00
    -3.211E+00   -3.161E+00   -3.111E+00   -3.061E+00   -3.011E+00   -2.960E+00   -2.909E+00   -2.859E+00   -2.808E+00   -2.757E+00
    -2.705E+00   -2.654E+00   -2.603E+00   -2.551E+00   -2.500E+00   -2.448E+00   -2.396E+00   -2.344E+00   -2.292E+00   -2.240E+00
    -2.187E+00   -2.135E+00   -2.083E+00   -2.030E+00   -1.978E+00   -1.925E+00   -1.872E+00   -1.820E+00   -1.767E+00   -1.714E+00
    -1.661E+00   -1.608E+00   -1.555E+00   -1.502E+00   -1.449E+00   -1.396E+00   -1.343E+00   -1.290E+00   -1.236E+00   -1.183E+00
    -1.130E+00   -1.077E+00   -1.023E+00   -9.701E-01   -9.168E-01   -8.635E-01   -8.102E-01   -7.569E-01   -7.036E-01   -6.503E-01
    -5.971E-01   -5.438E-01   -4.906E-01   -4.374E-01   -3.843E-01   -3.311E-01   -2.780E-01   -2.250E-01   -1.719E-01   -1.190E-01
    -6.604E-02   -1.316E-02    3.966E-02    9.243E-02    1.451E-01    1.978E-01    2.504E-01    3.030E-01    3.555E-01    4.079E-01
     4.603E-01    5.127E-01    5.650E-01    6.173E-01    6.695E-01    7.217E-01    7.739E-01    8.260E-01    8.781E-01    9.301E-01
     9.821E-01    1.034E+00    1.086E+00    1.138E+00    1.190E+00    1.242E+00    1.294E+00    1.345E+00    1.397E+00    1.449E+00
     1.501E+00    1.553E+00    1.604E+00    1.656E+00    1.708E+00    1.759E+00    1.811E+00    1.863E+00    1.914E+00    1.966E+00
     2.018E+00    2.069E+00    2.121E+00    2.173E+00    2.224E+00    2.276E+00    2.328E+00    2.379E+00
 Ala      Conc. = 1.21E+02
