 LCModel (Version 6.3-1L) Copyright: S.W. Provencher.          Ref.: Magn. Reson. Med. 30:672-679 (1993).                
 Slice#1 Row#1 Col#5  K_02_press_1_raw_act
 36 lines in following concentration table = NCONC+1
    Conc.  %SD /Cr+PCr  Metabolite                                         
 5.91E+03   9% 384.974 Ala                                                 
    0.000 999%   0.000 Asp                                                 
   15.357 412%   1.000 Cr                                                  
    0.000 999%   0.000 PCr                                                 
    0.000 999%   0.000 GABA                                                
    0.000 999%   0.000 Glc                                                 
    0.000 999%   0.000 Gln                                                 
    0.000 999%   0.000 Glu                                                 
    0.000 999%   0.000 GPC                                                 
   17.273 133%   1.125 PCh                                                 
   60.867 176%   3.963 GSH                                                 
    0.000 999%   0.000 Ins                                                 
 5.79E+03   9% 376.986 Lac                                                 
    0.000 999%   0.000 NAA                                                 
    0.000 999%   0.000 NAAG                                                
    0.000 999%   0.000 Scyllo                                              
    0.000 999%   0.000 Tau                                                 
   58.447 120%   3.806 -CrCH2                                              
   17.273 133%   1.125 GPC+PCh                                             
    0.000 999%   0.000 NAA+NAAG                                            
   15.357 412%   1.000 Cr+PCr                                              
    0.000 999%   0.000 Glu+Gln                                             
    0.000 999%   0.000 Lip13a                                              
    0.000 999%   0.000 Lip13b                                              
    0.000 999%   0.000 Lip09                                               
 1.87E+03   6% 121.897 MM09                                                
    0.000 999%   0.000 Lip20                                               
 2.81E+03   6% 182.814 MM20                                                
  561.595   6%  36.568 MM12                                                
 1.41E+03   6%  91.509 MM14                                                
  702.669   6%  45.754 MM17                                                
    0.000 999%   0.000 Lip13a+Lip13b                                       
 1.97E+03   6% 128.077 MM14+Lip13a+Lip13b+MM12                             
 1.87E+03   6% 121.897 MM09+Lip09                                          
 2.81E+03   6% 182.814 MM20+Lip20                                          
   6 lines in following misc. output table
  FWHM = 0.153 ppm    S/N =   5                                            
  Data shift = 0.115 ppm                                                   
  Ph:  18 deg      89.0 deg/ppm                                            
  alphaB,S = 1.8E+00,   3.8E+02                                            
    7 spline knots.   Ns = 9(2)                                            
  (12) 2 infls.   ( 1) 1 extrs.                                            
  498 points on ppm-axis = NY
      4.000000     3.992357     3.984714     3.977070     3.969427     3.961784     3.954141     3.946497     3.938854     3.931211
      3.923568     3.915925     3.908281     3.900638     3.892995     3.885352     3.877708     3.870065     3.862422     3.854779
      3.847136     3.839492     3.831849     3.824206     3.816563     3.808919     3.801276     3.793633     3.785990     3.778347
      3.770703     3.763060     3.755417     3.747774     3.740130     3.732487     3.724844     3.717201     3.709558     3.701914
      3.694271     3.686628     3.678985     3.671341     3.663698     3.656055     3.648412     3.640769     3.633125     3.625482
      3.617839     3.610196     3.602552     3.594909     3.587266     3.579623     3.571980     3.564336     3.556693     3.549050
      3.541407     3.533763     3.526120     3.518477     3.510834     3.503191     3.495547     3.487904     3.480261     3.472618
      3.464974     3.457331     3.449688     3.442045     3.434402     3.426758     3.419115     3.411472     3.403829     3.396185
      3.388542     3.380899     3.373256     3.365613     3.357969     3.350326     3.342683     3.335040     3.327396     3.319753
      3.312110     3.304467     3.296824     3.289180     3.281537     3.273894     3.266251     3.258607     3.250964     3.243321
      3.235678     3.228034     3.220391     3.212748     3.205105     3.197462     3.189818     3.182175     3.174532     3.166889
      3.159245     3.151602     3.143959     3.136316     3.128673     3.121029     3.113386     3.105743     3.098100     3.090456
      3.082813     3.075170     3.067527     3.059884     3.052240     3.044597     3.036954     3.029311     3.021667     3.014024
      3.006381     2.998738     2.991095     2.983451     2.975808     2.968165     2.960522     2.952878     2.945235     2.937592
      2.929949     2.922306     2.914662     2.907019     2.899376     2.891733     2.884089     2.876446     2.868803     2.861160
      2.853517     2.845873     2.838230     2.830587     2.822944     2.815300     2.807657     2.800014     2.792371     2.784728
      2.777084     2.769441     2.761798     2.754155     2.746511     2.738868     2.731225     2.723582     2.715939     2.708295
      2.700652     2.693009     2.685366     2.677722     2.670079     2.662436     2.654793     2.647150     2.639506     2.631863
      2.624220     2.616577     2.608933     2.601290     2.593647     2.586004     2.578361     2.570717     2.563074     2.555431
      2.547788     2.540144     2.532501     2.524858     2.517215     2.509572     2.501928     2.494285     2.486642     2.478999
      2.471355     2.463712     2.456069     2.448426     2.440783     2.433139     2.425496     2.417853     2.410210     2.402566
      2.394923     2.387280     2.379637     2.371994     2.364350     2.356707     2.349064     2.341421     2.333777     2.326134
      2.318491     2.310848     2.303205     2.295561     2.287918     2.280275     2.272632     2.264988     2.257345     2.249702
      2.242059     2.234416     2.226772     2.219129     2.211486     2.203843     2.196199     2.188556     2.180913     2.173270
      2.165627     2.157983     2.150340     2.142697     2.135054     2.127410     2.119767     2.112124     2.104481     2.096838
      2.089194     2.081551     2.073908     2.066265     2.058621     2.050978     2.043335     2.035692     2.028049     2.020405
      2.012762     2.005119     1.997476     1.989833     1.982190     1.974546     1.966903     1.959260     1.951617     1.943974
      1.936331     1.928688     1.921045     1.913402     1.905759     1.898115     1.890472     1.882829     1.875186     1.867543
      1.859900     1.852257     1.844614     1.836971     1.829327     1.821684     1.814041     1.806398     1.798755     1.791112
      1.783469     1.775826     1.768183     1.760540     1.752896     1.745253     1.737610     1.729967     1.722324     1.714681
      1.707038     1.699395     1.691752     1.684108     1.676465     1.668822     1.661179     1.653536     1.645893     1.638250
      1.630607     1.622964     1.615321     1.607677     1.600034     1.592391     1.584748     1.577105     1.569462     1.561819
      1.554176     1.546533     1.538890     1.531246     1.523603     1.515960     1.508317     1.500674     1.493031     1.485388
      1.477745     1.470102     1.462458     1.454815     1.447172     1.439529     1.431886     1.424243     1.416600     1.408957
      1.401314     1.393671     1.386027     1.378384     1.370741     1.363098     1.355455     1.347812     1.340169     1.332526
      1.324883     1.317240     1.309596     1.301953     1.294310     1.286667     1.279024     1.271381     1.263738     1.256095
      1.248452     1.240808     1.233165     1.225522     1.217879     1.210236     1.202593     1.194950     1.187307     1.179664
      1.172021     1.164377     1.156734     1.149091     1.141448     1.133805     1.126162     1.118519     1.110876     1.103233
      1.095590     1.087946     1.080303     1.072660     1.065017     1.057374     1.049731     1.042088     1.034445     1.026802
      1.019158     1.011515     1.003872     0.996229     0.988586     0.980943     0.973300     0.965657     0.958014     0.950371
      0.942727     0.935084     0.927441     0.919798     0.912155     0.904512     0.896869     0.889226     0.881583     0.873940
      0.866296     0.858653     0.851010     0.843367     0.835724     0.828081     0.820438     0.812795     0.805152     0.797508
      0.789865     0.782222     0.774579     0.766936     0.759293     0.751650     0.744007     0.736364     0.728721     0.721077
      0.713434     0.705791     0.698148     0.690505     0.682862     0.675219     0.667576     0.659933     0.652290     0.644646
      0.637003     0.629360     0.621717     0.614074     0.606431     0.598788     0.591145     0.583502     0.575858     0.568215
      0.560572     0.552929     0.545286     0.537643     0.530000     0.522357     0.514714     0.507071     0.499427     0.491784
      0.484141     0.476498     0.468855     0.461212     0.453569     0.445925     0.438282     0.430639     0.422996     0.415353
      0.407710     0.400067     0.392424     0.384780     0.377137     0.369494     0.361851     0.354208     0.346565     0.338922
      0.331278     0.323635     0.315992     0.308349     0.300706     0.293063     0.285420     0.277777     0.270133     0.262490
      0.254847     0.247204     0.239561     0.231918     0.224275     0.216631     0.208988     0.201345
 NY phased data points follow
  -9.15187E+00 -6.49442E+00 -6.86713E+00 -6.62922E+00 -5.19233E+00 -1.67636E+00 -5.34233E+00 -4.04611E+00 -4.94939E+00 -4.83677E+00
  -3.84787E+00 -2.53288E+00 -3.24291E+00 -7.99098E+00 -1.75255E+00 -6.59327E+00 -5.70168E+00 -6.71915E+00 -2.12243E+00 -8.45767E-01
  -5.00513E+00 -1.79676E+00 -3.87685E+00 -6.81387E+00 -4.44340E+00 -1.16640E+00 -4.68863E+00 -1.46454E+00 -2.86532E+00 -3.41489E+00
  -3.11284E+00 -2.25650E+00 -5.90697E+00 -6.31130E+00 -1.84697E+00 -5.25899E+00 -3.19153E+00 -7.99308E+00 -5.08988E+00 -2.60968E+00
  -4.05232E+00 -2.54468E+00 -3.31760E+00 -2.47267E+00 -1.20699E+00 -1.24070E+00 -2.17625E+00 -7.81238E-01  7.03114E-01 -1.18776E+00
  -2.78176E+00 -3.53095E+00 -1.55309E+00 -4.54969E+00 -1.10221E+00 -7.27118E-01 -4.37153E+00  8.17994E-02 -1.96510E+00 -7.18047E-01
  -1.62263E+00 -1.61408E+00 -2.25594E+00  2.74692E+00 -1.60149E+00 -1.61246E+00  2.14646E+00 -2.17793E+00 -2.36654E+00 -2.04658E+00
  -4.76668E+00 -1.18638E+00 -1.10058E+00 -9.31919E-01 -4.55472E-01 -1.96769E+00 -1.39634E+00 -2.39394E+00 -2.04331E+00  3.58980E-01
  -2.56716E+00 -3.90763E+00 -1.53856E+00 -1.93449E+00 -1.03723E+00  1.27748E+00 -3.14272E-01 -4.72378E+00 -1.86448E+00 -3.70711E+00
  -2.60257E+00 -3.41633E+00 -4.19664E+00 -2.35938E+00  1.94218E+00 -8.83979E-01  8.77960E-01  2.22691E+00 -6.90503E-01  7.96151E-01
   5.66198E+00  1.73221E+00  1.69649E+00  1.03635E+00 -2.35832E+00  3.87036E+00  1.75429E+00  2.48726E+00  4.32045E-02  2.02859E+00
   1.07066E+00  9.07149E-02  9.23828E-01 -1.90121E+00 -2.53088E+00 -1.56617E+00 -3.28766E+00 -2.56362E+00  4.49967E+00  2.15601E+00
   2.39671E+00  6.69745E-01  4.82704E+00  2.80557E+00  4.57808E+00 -3.68718E-01  2.67188E+00  3.61561E+00 -2.10093E-01 -5.72157E-01
   1.13317E+00  5.94076E-01  5.71375E+00  2.61101E+00 -1.19580E+00  2.67482E+00  1.63891E+00 -1.82580E+00 -2.43519E+00  1.60848E+00
  -2.38882E+00 -5.85065E-01  1.74908E+00  1.03998E+00  7.40956E-01  3.95996E+00  1.21605E+00  2.74759E+00  1.68404E+00  1.53870E+00
  -6.25030E-01 -5.08447E-01 -8.35996E-01  9.34180E-01  8.39724E-01  8.00305E-01  3.06220E+00  1.45321E+00  3.61804E+00 -1.68025E+00
  -6.67850E-01  2.24271E+00  2.42210E+00 -5.64183E-01  6.06012E-01  5.84530E-01  1.12599E-01 -1.46005E-01 -7.09160E-01  1.01211E+00
  -2.03256E+00  1.05238E+00 -1.89609E+00 -3.24416E+00  1.29189E+00 -3.13397E-01 -2.41699E+00 -1.62489E+00  3.09430E-01  1.51021E+00
   1.10652E+00  2.50207E-01  1.59153E+00 -8.17272E-01  2.72300E+00 -6.04013E-01 -3.04805E+00 -1.62062E+00  2.69975E-01 -1.25149E+00
   1.92725E+00 -2.92341E+00 -2.80877E+00 -4.10957E+00 -3.04387E+00  7.95838E-01 -3.61351E+00  1.45734E+00 -1.40387E+00 -2.57783E+00
  -4.07793E-01 -2.66209E+00 -7.84720E-01 -2.07478E+00 -5.57285E+00  1.37671E+00 -2.19164E+00 -2.05878E+00  2.75042E-01  2.40300E-01
  -2.05356E+00 -2.19201E-01 -2.76834E+00 -1.99012E+00 -2.34400E+00 -2.91721E+00 -4.16373E+00 -3.20592E+00 -1.89312E+00 -7.24540E+00
  -2.05468E+00 -2.46323E+00  2.33218E+00 -1.30055E+00 -5.71535E+00 -1.52768E+00 -6.08069E-01  9.61878E-02 -2.70337E+00 -2.82671E+00
  -4.63244E+00 -2.86629E+00 -2.92122E+00 -2.04661E+00 -2.40512E+00 -2.04382E+00 -2.53048E+00 -4.29012E+00 -2.31502E+00 -4.84231E+00
  -3.03712E+00 -6.03120E+00 -3.35586E+00 -3.63820E+00 -3.25436E+00 -2.87667E+00 -2.84387E+00 -5.47975E+00 -3.97585E+00  3.77446E+00
   3.66097E-01  4.22699E+00 -4.77815E+00 -2.56352E+00 -3.94684E+00 -2.59523E+00 -3.81049E+00 -1.96042E+00 -7.13553E+00 -3.96229E+00
  -8.59803E+00 -7.96124E+00 -6.17563E+00 -4.35352E+00 -6.16774E+00 -5.48173E+00 -6.98354E+00 -4.92129E+00 -5.61981E+00 -4.13637E+00
  -2.78115E+00 -5.03822E+00 -8.00552E+00 -4.46001E+00 -5.46649E+00 -5.57614E+00 -5.61150E+00 -6.27075E+00 -6.91277E+00 -4.06039E+00
  -8.41951E+00 -4.86927E+00 -6.91492E+00 -4.70740E+00 -6.37405E+00 -6.49142E+00 -4.59101E+00 -6.11186E+00 -6.97028E+00 -7.36384E+00
  -1.82666E+00 -1.00557E+01 -7.78335E+00 -4.78817E+00 -1.13324E+01 -8.16787E+00 -7.50439E+00 -6.99369E+00 -5.94475E+00 -5.15164E+00
  -9.47302E+00 -6.11852E+00 -9.60122E+00 -5.62600E+00 -4.30614E+00 -5.28310E+00 -5.34515E+00 -4.23525E+00 -2.48754E+00 -3.61494E+00
  -1.42210E+00  2.47758E+00  1.77864E+00  3.45648E+00  4.60729E+00  4.24337E+00  1.05695E+01  1.06661E+01  1.70560E+01  1.80386E+01
   2.18064E+01  2.15148E+01  1.95662E+01  2.23901E+01  1.98516E+01  2.44774E+01  2.40097E+01  2.25741E+01  2.03883E+01  2.04790E+01
   2.29578E+01  2.13658E+01  2.37107E+01  2.01478E+01  2.24263E+01  2.41260E+01  2.28695E+01  2.21108E+01  2.06582E+01  1.78817E+01
   1.92556E+01  1.58219E+01  2.10451E+01  1.70750E+01  1.53311E+01  1.17914E+01  1.80339E+01  1.42366E+01  1.36007E+01  1.17230E+01
   1.37323E+01  1.04152E+01  1.05276E+01  7.76004E+00  5.54857E+00  7.96867E+00  7.22829E+00  9.70605E+00  6.70002E+00  5.72273E+00
   3.85374E+00  3.45826E+00  4.34146E+00  4.96356E+00  3.72052E+00  4.05969E+00  4.97309E+00  3.81228E+00  6.44016E+00  7.63724E+00
   1.82093E+00  5.93715E+00 -1.09555E+00  1.19308E+00  2.17426E-02  4.33775E+00  1.60476E+00  4.17382E+00  1.86670E+00 -9.21549E-01
   9.67081E-01  3.21311E+00  1.98033E+00  1.23316E+00 -5.80521E-01 -7.26690E-01  1.05410E+00 -3.62329E-01  3.50452E+00  1.85527E-02
   4.77266E-02 -6.89004E-01  2.69794E+00  1.24055E+00 -2.44654E+00 -1.62635E+00  1.25671E+00 -1.51335E+00 -1.15837E-01  8.16260E-01
  -1.33074E+00 -1.78650E+00  1.45574E-01 -2.31565E+00 -1.99146E+00 -3.55095E+00 -6.44139E+00 -1.56636E+00 -2.05534E+00 -3.05575E+00
  -4.01069E+00 -1.97801E+00  2.67331E-01 -4.90138E+00 -3.51476E+00 -3.81138E-01 -2.29273E+00 -1.96469E+00 -4.14606E-01 -2.45246E+00
  -2.31672E+00 -2.51054E+00  7.07918E-01  1.66671E+00 -1.74789E-01 -1.41419E+00 -1.47987E+00 -9.12201E-01 -2.16171E+00 -2.18852E+00
  -5.35773E+00 -2.35443E+00  2.68601E-01 -4.00307E+00 -3.18263E+00 -3.42103E-01 -2.60587E+00 -1.69384E+00 -4.44691E+00 -2.41418E+00
  -4.10600E+00  1.58584E+00 -7.31408E-01 -3.10229E+00 -2.71969E+00 -5.20880E-01 -1.74729E+00 -2.35009E+00 -6.39386E+00 -4.68882E+00
  -4.59028E+00 -1.40689E+00 -3.01224E+00 -6.55404E+00 -2.93453E+00 -6.70044E-01 -5.02726E+00 -1.47906E+00 -4.32592E+00 -4.33166E-01
  -2.49073E+00 -5.63747E+00 -4.50501E+00 -5.37681E+00 -3.56072E+00 -1.31761E+00 -2.84460E+00 -1.12195E+00 -3.21785E+00 -4.20415E+00
  -4.62804E+00 -2.73649E+00 -6.99635E-01 -3.09684E+00 -2.02744E+00 -4.92267E+00 -4.32271E+00  3.52334E-01 -2.64243E+00  1.04920E+00
  -5.21038E+00 -2.64139E+00 -1.79371E-01 -4.00474E+00 -9.69151E-01 -1.94011E+00  2.52136E-02 -4.26678E+00  2.91511E-01 -4.18631E+00
  -1.75806E+00 -2.12534E+00 -3.19345E+00  1.77772E-01 -4.84085E+00 -4.28793E+00 -5.86140E+00 -2.54493E+00
 NY points of the fit to the data follow
  -5.71353E+00 -4.37551E+00 -5.31032E+00 -4.13690E+00 -4.79918E+00 -3.78868E+00 -4.36574E+00 -3.55139E+00 -4.24696E+00 -3.70238E+00
  -4.43493E+00 -4.01286E+00 -4.66707E+00 -4.04792E+00 -4.67543E+00 -3.79879E+00 -4.29771E+00 -3.35906E+00 -3.84483E+00 -3.00003E+00
  -3.62332E+00 -2.88147E+00 -3.62205E+00 -3.06575E+00 -3.74485E+00 -3.37030E+00 -3.87336E+00 -3.64620E+00 -3.80349E+00 -3.68201E+00
  -3.46269E+00 -3.50865E+00 -2.97971E+00 -3.24919E+00 -2.53301E+00 -3.15426E+00 -2.40398E+00 -3.34766E+00 -2.52721E+00 -3.59908E+00
  -2.69717E+00 -3.67628E+00 -2.59175E+00 -3.38275E+00 -2.19804E+00 -2.85567E+00 -1.77395E+00 -2.31910E+00 -1.61398E+00 -2.23648E+00
  -1.80854E+00 -2.38950E+00 -2.12532E+00 -2.56019E+00 -2.39679E+00 -2.51774E+00 -2.25645E+00 -2.22965E+00 -1.99177E+00 -1.89383E+00
  -1.72238E+00 -1.61515E+00 -1.55473E+00 -1.50593E+00 -1.46522E+00 -1.42521E+00 -1.38914E+00 -1.35192E+00 -1.31751E+00 -1.28118E+00
  -1.24745E+00 -1.21174E+00 -1.17814E+00 -1.14287E+00 -1.10916E+00 -1.07381E+00 -1.04006E+00 -1.00469E+00 -9.70927E-01 -9.35513E-01
  -9.01633E-01 -8.65943E-01 -8.31478E-01 -7.94451E-01 -7.55091E-01 -6.96777E-01 -6.41635E-01 -5.81833E-01 -5.17076E-01 -4.61796E-01
  -3.88220E-01 -3.32340E-01 -2.45712E-01 -1.87981E-01 -8.59971E-02 -3.26569E-02  8.31413E-02  1.28111E-01  2.55289E-01  2.84116E-01
   4.16996E-01  4.25816E-01  5.58053E-01  5.45290E-01  6.70670E-01  6.35339E-01  7.48746E-01  7.03114E-01  8.07027E-01  7.67662E-01
   8.61920E-01  8.28862E-01  9.11766E-01  8.84264E-01  9.54466E-01  9.33942E-01  9.89427E-01  9.77820E-01  1.01593E+00  1.01571E+00
   1.03817E+00  1.05371E+00  1.06743E+00  1.09811E+00  1.10967E+00  1.15070E+00  1.15972E+00  1.18071E+00  1.17634E+00  1.17149E+00
   1.15463E+00  1.12539E+00  1.09821E+00  1.04611E+00  1.01003E+00  9.36429E-01  8.92256E-01  8.00068E-01  7.49605E-01  6.40716E-01
   5.84788E-01  4.62706E-01  4.00263E-01  2.68979E-01  1.99719E-01  6.46669E-02 -9.30133E-03 -1.39595E-01 -2.14381E-01 -3.33354E-01
  -4.08976E-01 -5.21882E-01 -5.99468E-01 -7.05843E-01 -7.85218E-01 -8.83605E-01 -9.64638E-01 -1.05999E+00 -1.14487E+00 -1.23542E+00
  -1.32096E+00 -1.40428E+00 -1.48572E+00 -1.56233E+00 -1.63834E+00 -1.71144E+00 -1.78387E+00 -1.85586E+00 -1.92577E+00 -1.99676E+00
  -2.06433E+00 -2.13322E+00 -2.19642E+00 -2.26223E+00 -2.32071E+00 -2.38555E+00 -2.44158E+00 -2.50633E+00 -2.56012E+00 -2.62598E+00
  -2.67845E+00 -2.73918E+00 -2.78769E+00 -2.84241E+00 -2.88807E+00 -2.93791E+00 -2.98300E+00 -3.02763E+00 -3.07342E+00 -3.11176E+00
  -3.15807E+00 -3.18967E+00 -3.23670E+00 -3.26062E+00 -3.30679E+00 -3.32187E+00 -3.36511E+00 -3.37076E+00 -3.40853E+00 -3.40480E+00
  -3.43582E+00 -3.42605E+00 -3.45152E+00 -3.43811E+00 -3.45762E+00 -3.44063E+00 -3.45185E+00 -3.43055E+00 -3.43128E+00 -3.40330E+00
  -3.39143E+00 -3.35733E+00 -3.33286E+00 -3.29547E+00 -3.26220E+00 -3.22098E+00 -3.17972E+00 -3.13312E+00 -3.08326E+00 -3.02836E+00
  -2.96957E+00 -2.90676E+00 -2.83969E+00 -2.76927E+00 -2.69307E+00 -2.61287E+00 -2.52551E+00 -2.43156E+00 -2.32862E+00 -2.22171E+00
  -2.10372E+00 -1.98523E+00 -1.85335E+00 -1.72528E+00 -1.58171E+00 -1.44701E+00 -1.29491E+00 -1.15730E+00 -1.00137E+00 -8.65497E-01
  -7.12187E-01 -5.82857E-01 -4.39706E-01 -3.24023E-01 -2.00481E-01 -1.09074E-01 -1.66539E-02  3.94245E-02  8.98916E-02  1.02987E-01
   1.05241E-01  7.34207E-02  2.61275E-02 -5.06313E-02 -1.45742E-01 -2.62224E-01 -3.98970E-01 -5.51401E-01 -7.24410E-01 -9.07226E-01
  -1.10983E+00 -1.32017E+00 -1.54617E+00 -1.77435E+00 -2.01331E+00 -2.24983E+00 -2.49268E+00 -2.72883E+00 -2.96708E+00 -3.19841E+00
  -3.42877E+00 -3.65167E+00 -3.87102E+00 -4.08240E+00 -4.28852E+00 -4.48551E+00 -4.67569E+00 -4.85544E+00 -5.02741E+00 -5.18808E+00
  -5.34019E+00 -5.48024E+00 -5.61107E+00 -5.72926E+00 -5.83773E+00 -5.93310E+00 -6.01825E+00 -6.08980E+00 -6.15054E+00 -6.19708E+00
  -6.23206E+00 -6.25187E+00 -6.25878E+00 -6.24878E+00 -6.22364E+00 -6.17868E+00 -6.11472E+00 -6.02588E+00 -5.91142E+00 -5.76352E+00
  -5.57894E+00 -5.34658E+00 -5.05885E+00 -4.69869E+00 -4.24999E+00 -3.68226E+00 -2.95518E+00 -1.98445E+00 -5.76724E-01  1.41361E+00
   2.55471E+00  4.43551E+00  5.23228E+00  6.93724E+00  7.53454E+00  9.16381E+00  9.25407E+00  1.17096E+01  1.21471E+01  1.46968E+01
   1.50930E+01  1.71084E+01  1.69466E+01  1.81459E+01  1.76264E+01  1.81234E+01  1.77557E+01  1.76272E+01  1.80429E+01  1.80478E+01
   1.91220E+01  1.83141E+01  2.00263E+01  1.84323E+01  2.07087E+01  1.83755E+01  2.07519E+01  1.85979E+01  2.08315E+01  1.82124E+01
   2.01676E+01  1.72999E+01  1.88304E+01  1.60829E+01  1.73698E+01  1.51983E+01  1.63528E+01  1.45861E+01  1.51457E+01  1.39366E+01
   1.34427E+01  1.22751E+01  1.11969E+01  1.04977E+01  9.07598E+00  8.83379E+00  7.26828E+00  7.42382E+00  6.34495E+00  6.12388E+00
   5.35568E+00  5.19818E+00  4.86116E+00  5.07271E+00  5.20102E+00  5.77983E+00  6.26588E+00  6.76699E+00  7.24769E+00  7.58518E+00
   7.32623E+00  6.48998E+00  5.73050E+00  4.27443E+00  3.27007E+00  1.73324E+00  8.08267E-01  2.42733E-01 -1.34023E-01 -3.85168E-01
  -5.47784E-01 -6.38929E-01 -6.75230E-01 -6.63157E-01 -6.13469E-01 -5.29380E-01 -4.19828E-01 -2.86961E-01 -1.39009E-01  2.23053E-02
   1.88964E-01  3.59288E-01  5.25337E-01  6.85667E-01  8.32790E-01  9.65831E-01  1.07796E+00  1.16904E+00  1.23319E+00  1.27144E+00
   1.27920E+00  1.25883E+00  1.20704E+00  1.12747E+00  1.01808E+00  8.83743E-01  7.23541E-01  5.43235E-01  3.42577E-01  1.27811E-01
  -1.00970E-01 -3.37339E-01 -5.81217E-01 -8.26417E-01 -1.07326E+00 -1.31604E+00 -1.55559E+00 -1.78677E+00 -2.01103E+00 -2.22391E+00
  -2.42752E+00 -2.61798E+00 -2.79790E+00 -2.96385E+00 -3.11891E+00 -3.26004E+00 -3.39064E+00 -3.50789E+00 -3.61536E+00 -3.71035E+00
  -3.79655E+00 -3.87139E+00 -3.93858E+00 -3.99551E+00 -4.04586E+00 -4.08700E+00 -4.12262E+00 -4.15005E+00 -4.17292E+00 -4.18847E+00
  -4.20026E+00 -4.20551E+00 -4.20775E+00 -4.20415E+00 -4.19816E+00 -4.18689E+00 -4.17374E+00 -4.15582E+00 -4.13651E+00 -4.11285E+00
  -4.08819E+00 -4.05953E+00 -4.03018E+00 -3.99716E+00 -3.96377E+00 -3.92697E+00 -3.89003E+00 -3.84990E+00 -3.80984E+00 -3.76681E+00
  -3.72405E+00 -3.67849E+00 -3.63335E+00 -3.58554E+00 -3.53831E+00 -3.48857E+00 -3.43953E+00 -3.38809E+00 -3.33744E+00 -3.28450E+00
  -3.23247E+00 -3.17824E+00 -3.12502E+00 -3.06968E+00 -3.01540E+00 -2.95908E+00 -2.90392E+00 -2.84680E+00 -2.79089E+00 -2.73306E+00
  -2.67650E+00 -2.61809E+00 -2.56102E+00 -2.50215E+00 -2.44464E+00 -2.38537E+00 -2.32752E+00 -2.26795E+00 -2.20984E+00 -2.15004E+00
  -2.09172E+00 -2.03173E+00 -1.97324E+00 -1.91310E+00 -1.85446E+00 -1.79415E+00 -1.73531E+00 -1.67474E+00
 NY background values follow
    -4.812E+00   -4.769E+00   -4.727E+00   -4.684E+00   -4.640E+00   -4.597E+00   -4.553E+00   -4.508E+00   -4.464E+00   -4.419E+00
    -4.374E+00   -4.329E+00   -4.284E+00   -4.238E+00   -4.192E+00   -4.147E+00   -4.101E+00   -4.054E+00   -4.008E+00   -3.962E+00
    -3.915E+00   -3.869E+00   -3.822E+00   -3.775E+00   -3.728E+00   -3.682E+00   -3.635E+00   -3.588E+00   -3.541E+00   -3.494E+00
    -3.448E+00   -3.401E+00   -3.354E+00   -3.308E+00   -3.261E+00   -3.215E+00   -3.169E+00   -3.123E+00   -3.077E+00   -3.031E+00
    -2.985E+00   -2.940E+00   -2.894E+00   -2.849E+00   -2.805E+00   -2.760E+00   -2.716E+00   -2.672E+00   -2.628E+00   -2.584E+00
    -2.541E+00   -2.498E+00   -2.456E+00   -2.414E+00   -2.372E+00   -2.331E+00   -2.290E+00   -2.249E+00   -2.209E+00   -2.169E+00
    -2.129E+00   -2.091E+00   -2.052E+00   -2.014E+00   -1.977E+00   -1.940E+00   -1.903E+00   -1.867E+00   -1.832E+00   -1.797E+00
    -1.763E+00   -1.729E+00   -1.696E+00   -1.664E+00   -1.632E+00   -1.601E+00   -1.571E+00   -1.541E+00   -1.512E+00   -1.483E+00
    -1.456E+00   -1.429E+00   -1.402E+00   -1.377E+00   -1.352E+00   -1.328E+00   -1.305E+00   -1.282E+00   -1.261E+00   -1.240E+00
    -1.220E+00   -1.201E+00   -1.183E+00   -1.166E+00   -1.149E+00   -1.134E+00   -1.119E+00   -1.106E+00   -1.093E+00   -1.082E+00
    -1.071E+00   -1.061E+00   -1.052E+00   -1.045E+00   -1.038E+00   -1.033E+00   -1.028E+00   -1.024E+00   -1.022E+00   -1.021E+00
    -1.021E+00   -1.022E+00   -1.024E+00   -1.027E+00   -1.031E+00   -1.037E+00   -1.044E+00   -1.052E+00   -1.061E+00   -1.071E+00
    -1.083E+00   -1.096E+00   -1.110E+00   -1.126E+00   -1.143E+00   -1.161E+00   -1.180E+00   -1.201E+00   -1.223E+00   -1.246E+00
    -1.271E+00   -1.296E+00   -1.323E+00   -1.351E+00   -1.381E+00   -1.411E+00   -1.443E+00   -1.475E+00   -1.509E+00   -1.544E+00
    -1.580E+00   -1.617E+00   -1.655E+00   -1.695E+00   -1.735E+00   -1.776E+00   -1.818E+00   -1.861E+00   -1.905E+00   -1.950E+00
    -1.996E+00   -2.043E+00   -2.091E+00   -2.139E+00   -2.189E+00   -2.239E+00   -2.290E+00   -2.342E+00   -2.395E+00   -2.448E+00
    -2.503E+00   -2.558E+00   -2.613E+00   -2.670E+00   -2.727E+00   -2.784E+00   -2.843E+00   -2.902E+00   -2.962E+00   -3.022E+00
    -3.083E+00   -3.144E+00   -3.206E+00   -3.269E+00   -3.332E+00   -3.396E+00   -3.460E+00   -3.525E+00   -3.590E+00   -3.655E+00
    -3.721E+00   -3.788E+00   -3.854E+00   -3.922E+00   -3.989E+00   -4.057E+00   -4.125E+00   -4.194E+00   -4.263E+00   -4.332E+00
    -4.401E+00   -4.471E+00   -4.541E+00   -4.611E+00   -4.681E+00   -4.752E+00   -4.823E+00   -4.893E+00   -4.964E+00   -5.036E+00
    -5.107E+00   -5.178E+00   -5.250E+00   -5.321E+00   -5.393E+00   -5.464E+00   -5.536E+00   -5.607E+00   -5.679E+00   -5.750E+00
    -5.822E+00   -5.893E+00   -5.965E+00   -6.036E+00   -6.107E+00   -6.178E+00   -6.249E+00   -6.320E+00   -6.390E+00   -6.460E+00
    -6.530E+00   -6.600E+00   -6.670E+00   -6.739E+00   -6.808E+00   -6.877E+00   -6.946E+00   -7.014E+00   -7.081E+00   -7.149E+00
    -7.216E+00   -7.283E+00   -7.349E+00   -7.415E+00   -7.480E+00   -7.545E+00   -7.610E+00   -7.674E+00   -7.737E+00   -7.800E+00
    -7.863E+00   -7.924E+00   -7.986E+00   -8.047E+00   -8.107E+00   -8.166E+00   -8.225E+00   -8.283E+00   -8.341E+00   -8.398E+00
    -8.454E+00   -8.510E+00   -8.564E+00   -8.619E+00   -8.672E+00   -8.725E+00   -8.777E+00   -8.828E+00   -8.879E+00   -8.929E+00
    -8.978E+00   -9.027E+00   -9.075E+00   -9.122E+00   -9.168E+00   -9.214E+00   -9.259E+00   -9.303E+00   -9.347E+00   -9.390E+00
    -9.432E+00   -9.474E+00   -9.515E+00   -9.555E+00   -9.594E+00   -9.633E+00   -9.671E+00   -9.708E+00   -9.745E+00   -9.780E+00
    -9.816E+00   -9.850E+00   -9.884E+00   -9.917E+00   -9.949E+00   -9.980E+00   -1.001E+01   -1.004E+01   -1.007E+01   -1.010E+01
    -1.013E+01   -1.015E+01   -1.018E+01   -1.021E+01   -1.023E+01   -1.026E+01   -1.028E+01   -1.030E+01   -1.032E+01   -1.035E+01
    -1.037E+01   -1.039E+01   -1.041E+01   -1.042E+01   -1.044E+01   -1.046E+01   -1.047E+01   -1.049E+01   -1.050E+01   -1.052E+01
    -1.053E+01   -1.054E+01   -1.056E+01   -1.057E+01   -1.058E+01   -1.059E+01   -1.060E+01   -1.060E+01   -1.061E+01   -1.062E+01
    -1.062E+01   -1.063E+01   -1.063E+01   -1.064E+01   -1.064E+01   -1.064E+01   -1.064E+01   -1.064E+01   -1.064E+01   -1.064E+01
    -1.064E+01   -1.064E+01   -1.063E+01   -1.063E+01   -1.062E+01   -1.062E+01   -1.061E+01   -1.060E+01   -1.060E+01   -1.059E+01
    -1.058E+01   -1.057E+01   -1.056E+01   -1.054E+01   -1.053E+01   -1.052E+01   -1.050E+01   -1.049E+01   -1.047E+01   -1.046E+01
    -1.044E+01   -1.042E+01   -1.040E+01   -1.038E+01   -1.036E+01   -1.034E+01   -1.032E+01   -1.030E+01   -1.027E+01   -1.025E+01
    -1.022E+01   -1.020E+01   -1.017E+01   -1.014E+01   -1.012E+01   -1.009E+01   -1.006E+01   -1.003E+01   -9.995E+00   -9.963E+00
    -9.930E+00   -9.896E+00   -9.861E+00   -9.826E+00   -9.790E+00   -9.753E+00   -9.715E+00   -9.676E+00   -9.637E+00   -9.597E+00
    -9.556E+00   -9.514E+00   -9.472E+00   -9.429E+00   -9.385E+00   -9.341E+00   -9.296E+00   -9.250E+00   -9.204E+00   -9.156E+00
    -9.109E+00   -9.060E+00   -9.011E+00   -8.961E+00   -8.911E+00   -8.860E+00   -8.809E+00   -8.756E+00   -8.704E+00   -8.650E+00
    -8.597E+00   -8.542E+00   -8.487E+00   -8.432E+00   -8.376E+00   -8.319E+00   -8.262E+00   -8.204E+00   -8.146E+00   -8.088E+00
    -8.029E+00   -7.969E+00   -7.909E+00   -7.849E+00   -7.788E+00   -7.727E+00   -7.665E+00   -7.603E+00   -7.541E+00   -7.478E+00
    -7.415E+00   -7.351E+00   -7.287E+00   -7.223E+00   -7.158E+00   -7.093E+00   -7.027E+00   -6.962E+00   -6.896E+00   -6.829E+00
    -6.763E+00   -6.696E+00   -6.628E+00   -6.561E+00   -6.493E+00   -6.425E+00   -6.357E+00   -6.289E+00   -6.220E+00   -6.151E+00
    -6.082E+00   -6.013E+00   -5.943E+00   -5.874E+00   -5.804E+00   -5.734E+00   -5.664E+00   -5.593E+00   -5.523E+00   -5.452E+00
    -5.382E+00   -5.311E+00   -5.240E+00   -5.169E+00   -5.098E+00   -5.027E+00   -4.956E+00   -4.885E+00   -4.813E+00   -4.742E+00
    -4.671E+00   -4.599E+00   -4.528E+00   -4.457E+00   -4.385E+00   -4.314E+00   -4.243E+00   -4.172E+00   -4.100E+00   -4.029E+00
    -3.958E+00   -3.887E+00   -3.816E+00   -3.745E+00   -3.675E+00   -3.604E+00   -3.533E+00   -3.463E+00   -3.393E+00   -3.323E+00
    -3.253E+00   -3.183E+00   -3.113E+00   -3.044E+00   -2.975E+00   -2.906E+00   -2.837E+00   -2.768E+00   -2.700E+00   -2.631E+00
    -2.564E+00   -2.496E+00   -2.428E+00   -2.361E+00   -2.294E+00   -2.228E+00   -2.162E+00   -2.096E+00
 Ala      Conc. = 5.91E+03
