 LCModel (Version 6.3-1L) Copyright: S.W. Provencher.          Ref.: Magn. Reson. Med. 30:672-679 (1993).                
 Slice#1 Row#2 Col#13  K_02_press_1_raw_act
 36 lines in following concentration table = NCONC+1
    Conc.  %SD /Cr+PCr  Metabolite                                         
 4.70E+04  11% 337.149 Ala                                                 
   11.792 230% 8.5E-02 Asp                                                 
    0.000 999%   0.000 Cr                                                  
  139.406  92%   1.000 PCr                                                 
    7.248 226% 5.2E-02 GABA                                                
    7.254 226% 5.2E-02 Glc                                                 
 2.02E+03  92%  14.520 Gln                                                 
 3.39E+03  76%  24.339 Glu                                                 
    0.000 999%   0.000 GPC                                                 
   34.615 169%   0.248 PCh                                                 
  503.870  65%   3.614 GSH                                                 
  418.607 161%   3.003 Ins                                                 
 1.78E+04  40% 127.912 Lac                                                 
    0.000 999%   0.000 NAA                                                 
    0.000 999%   0.000 NAAG                                                
    2.398 231% 1.7E-02 Scyllo                                              
   12.054 226% 8.6E-02 Tau                                                 
   16.870 223%   0.121 -CrCH2                                              
   34.615 169%   0.248 GPC+PCh                                             
    0.000 999%   0.000 NAA+NAAG                                            
  139.406  92%   1.000 Cr+PCr                                              
 5.42E+03  77%  38.859 Glu+Gln                                             
    0.000 999%   0.000 Lip13a                                              
 3.18E+03  23%  22.783 Lip13b                                              
 9.87E+03  36%  70.833 Lip09                                               
 2.52E+04  13% 180.545 MM09                                                
    0.000 999%   0.000 Lip20                                               
    0.000 999%   0.000-MM20                                                
 9.24E+03  22%  66.279 MM12                                                
 1.43E+05   5% 1.0E+03+MM14                                                
 7.11E+04   8% 510.249+MM17                                                
 3.18E+03  23%  22.783 Lip13a+Lip13b                                       
 1.55E+05   5% 1.1E+03 MM14+Lip13a+Lip13b+MM12                             
 3.50E+04  11% 251.378 MM09+Lip09                                          
    0.000 999%   0.000 MM20+Lip20                                          
   6 lines in following misc. output table
  FWHM = 0.168 ppm    S/N =  92                                            
  Data shift = 0.283 ppm                                                   
  Ph: 130 deg      33.0 deg/ppm                                            
  alphaB,S = 5.9E+00,   4.2E+02                                            
    9 spline knots.   Ns = 9(2)                                            
  ( 5) 2 infls.   ( 1) 1 extrs.                                            
  498 points on ppm-axis = NY
      4.000000     3.992357     3.984714     3.977070     3.969427     3.961784     3.954141     3.946497     3.938854     3.931211
      3.923568     3.915925     3.908281     3.900638     3.892995     3.885352     3.877708     3.870065     3.862422     3.854779
      3.847136     3.839492     3.831849     3.824206     3.816563     3.808919     3.801276     3.793633     3.785990     3.778347
      3.770703     3.763060     3.755417     3.747774     3.740130     3.732487     3.724844     3.717201     3.709558     3.701914
      3.694271     3.686628     3.678985     3.671341     3.663698     3.656055     3.648412     3.640769     3.633125     3.625482
      3.617839     3.610196     3.602552     3.594909     3.587266     3.579623     3.571980     3.564336     3.556693     3.549050
      3.541407     3.533763     3.526120     3.518477     3.510834     3.503191     3.495547     3.487904     3.480261     3.472618
      3.464974     3.457331     3.449688     3.442045     3.434402     3.426758     3.419115     3.411472     3.403829     3.396185
      3.388542     3.380899     3.373256     3.365613     3.357969     3.350326     3.342683     3.335040     3.327396     3.319753
      3.312110     3.304467     3.296824     3.289180     3.281537     3.273894     3.266251     3.258607     3.250964     3.243321
      3.235678     3.228034     3.220391     3.212748     3.205105     3.197462     3.189818     3.182175     3.174532     3.166889
      3.159245     3.151602     3.143959     3.136316     3.128673     3.121029     3.113386     3.105743     3.098100     3.090456
      3.082813     3.075170     3.067527     3.059884     3.052240     3.044597     3.036954     3.029311     3.021667     3.014024
      3.006381     2.998738     2.991095     2.983451     2.975808     2.968165     2.960522     2.952878     2.945235     2.937592
      2.929949     2.922306     2.914662     2.907019     2.899376     2.891733     2.884089     2.876446     2.868803     2.861160
      2.853517     2.845873     2.838230     2.830587     2.822944     2.815300     2.807657     2.800014     2.792371     2.784728
      2.777084     2.769441     2.761798     2.754155     2.746511     2.738868     2.731225     2.723582     2.715939     2.708295
      2.700652     2.693009     2.685366     2.677722     2.670079     2.662436     2.654793     2.647150     2.639506     2.631863
      2.624220     2.616577     2.608933     2.601290     2.593647     2.586004     2.578361     2.570717     2.563074     2.555431
      2.547788     2.540144     2.532501     2.524858     2.517215     2.509572     2.501928     2.494285     2.486642     2.478999
      2.471355     2.463712     2.456069     2.448426     2.440783     2.433139     2.425496     2.417853     2.410210     2.402566
      2.394923     2.387280     2.379637     2.371994     2.364350     2.356707     2.349064     2.341421     2.333777     2.326134
      2.318491     2.310848     2.303205     2.295561     2.287918     2.280275     2.272632     2.264988     2.257345     2.249702
      2.242059     2.234416     2.226772     2.219129     2.211486     2.203843     2.196199     2.188556     2.180913     2.173270
      2.165627     2.157983     2.150340     2.142697     2.135054     2.127410     2.119767     2.112124     2.104481     2.096838
      2.089194     2.081551     2.073908     2.066265     2.058621     2.050978     2.043335     2.035692     2.028049     2.020405
      2.012762     2.005119     1.997476     1.989833     1.982190     1.974546     1.966903     1.959260     1.951617     1.943974
      1.936331     1.928688     1.921045     1.913402     1.905759     1.898115     1.890472     1.882829     1.875186     1.867543
      1.859900     1.852257     1.844614     1.836971     1.829327     1.821684     1.814041     1.806398     1.798755     1.791112
      1.783469     1.775826     1.768183     1.760540     1.752896     1.745253     1.737610     1.729967     1.722324     1.714681
      1.707038     1.699395     1.691752     1.684108     1.676465     1.668822     1.661179     1.653536     1.645893     1.638250
      1.630607     1.622964     1.615321     1.607677     1.600034     1.592391     1.584748     1.577105     1.569462     1.561819
      1.554176     1.546533     1.538890     1.531246     1.523603     1.515960     1.508317     1.500674     1.493031     1.485388
      1.477745     1.470102     1.462458     1.454815     1.447172     1.439529     1.431886     1.424243     1.416600     1.408957
      1.401314     1.393671     1.386027     1.378384     1.370741     1.363098     1.355455     1.347812     1.340169     1.332526
      1.324883     1.317240     1.309596     1.301953     1.294310     1.286667     1.279024     1.271381     1.263738     1.256095
      1.248452     1.240808     1.233165     1.225522     1.217879     1.210236     1.202593     1.194950     1.187307     1.179664
      1.172021     1.164377     1.156734     1.149091     1.141448     1.133805     1.126162     1.118519     1.110876     1.103233
      1.095590     1.087946     1.080303     1.072660     1.065017     1.057374     1.049731     1.042088     1.034445     1.026802
      1.019158     1.011515     1.003872     0.996229     0.988586     0.980943     0.973300     0.965657     0.958014     0.950371
      0.942727     0.935084     0.927441     0.919798     0.912155     0.904512     0.896869     0.889226     0.881583     0.873940
      0.866296     0.858653     0.851010     0.843367     0.835724     0.828081     0.820438     0.812795     0.805152     0.797508
      0.789865     0.782222     0.774579     0.766936     0.759293     0.751650     0.744007     0.736364     0.728721     0.721077
      0.713434     0.705791     0.698148     0.690505     0.682862     0.675219     0.667576     0.659933     0.652290     0.644646
      0.637003     0.629360     0.621717     0.614074     0.606431     0.598788     0.591145     0.583502     0.575858     0.568215
      0.560572     0.552929     0.545286     0.537643     0.530000     0.522357     0.514714     0.507071     0.499427     0.491784
      0.484141     0.476498     0.468855     0.461212     0.453569     0.445925     0.438282     0.430639     0.422996     0.415353
      0.407710     0.400067     0.392424     0.384780     0.377137     0.369494     0.361851     0.354208     0.346565     0.338922
      0.331278     0.323635     0.315992     0.308349     0.300706     0.293063     0.285420     0.277777     0.270133     0.262490
      0.254847     0.247204     0.239561     0.231918     0.224275     0.216631     0.208988     0.201345
 NY phased data points follow
  -4.89481E+01 -4.90759E+01 -4.49354E+01 -4.87752E+01 -4.71503E+01 -4.61914E+01 -5.08586E+01 -4.88009E+01 -4.81827E+01 -4.74954E+01
  -5.00799E+01 -4.85072E+01 -4.74329E+01 -4.52972E+01 -4.55825E+01 -4.70281E+01 -5.08578E+01 -4.69183E+01 -4.71807E+01 -5.11923E+01
  -5.35730E+01 -4.80166E+01 -5.43453E+01 -4.96649E+01 -5.00431E+01 -4.78349E+01 -5.16594E+01 -4.75555E+01 -5.46772E+01 -5.12234E+01
  -5.34915E+01 -5.03536E+01 -5.35352E+01 -5.20737E+01 -5.32653E+01 -4.72295E+01 -5.03342E+01 -4.93609E+01 -5.16367E+01 -4.85925E+01
  -5.27052E+01 -5.07445E+01 -4.95593E+01 -5.14487E+01 -4.90480E+01 -5.39231E+01 -5.36888E+01 -5.22855E+01 -5.08341E+01 -5.42065E+01
  -5.64489E+01 -5.20876E+01 -5.54593E+01 -5.21013E+01 -5.17420E+01 -5.35746E+01 -5.46115E+01 -5.18363E+01 -5.33619E+01 -5.55050E+01
  -5.23722E+01 -5.64781E+01 -5.24141E+01 -5.40105E+01 -5.36035E+01 -5.47235E+01 -5.46633E+01 -5.48310E+01 -5.34172E+01 -5.63744E+01
  -5.42488E+01 -5.39638E+01 -5.55951E+01 -5.77650E+01 -5.81759E+01 -5.67292E+01 -5.81010E+01 -5.40339E+01 -5.62829E+01 -5.39734E+01
  -5.68498E+01 -5.77850E+01 -5.81771E+01 -5.91489E+01 -5.69171E+01 -5.51635E+01 -5.40424E+01 -5.78325E+01 -5.68763E+01 -5.88272E+01
  -5.75889E+01 -5.99161E+01 -5.70605E+01 -6.03144E+01 -6.07771E+01 -6.12351E+01 -6.01523E+01 -5.88183E+01 -6.18395E+01 -5.73623E+01
  -5.83723E+01 -5.77682E+01 -6.18460E+01 -6.35046E+01 -6.11994E+01 -5.76752E+01 -5.90103E+01 -6.02185E+01 -6.08969E+01 -5.94828E+01
  -6.00829E+01 -6.03624E+01 -6.21457E+01 -5.91428E+01 -5.92100E+01 -6.12033E+01 -6.07984E+01 -6.19399E+01 -5.85990E+01 -6.20994E+01
  -6.15461E+01 -6.31044E+01 -6.14862E+01 -6.28508E+01 -6.29075E+01 -5.83801E+01 -6.06632E+01 -6.14433E+01 -6.78701E+01 -6.52496E+01
  -6.52369E+01 -6.36087E+01 -6.39770E+01 -6.21144E+01 -6.67549E+01 -6.55841E+01 -6.54804E+01 -6.49366E+01 -6.78030E+01 -6.53368E+01
  -6.75619E+01 -6.52575E+01 -6.28254E+01 -6.53478E+01 -6.71357E+01 -6.87293E+01 -6.77308E+01 -6.73213E+01 -7.04152E+01 -6.86491E+01
  -6.67882E+01 -6.79341E+01 -7.10139E+01 -6.86566E+01 -7.10722E+01 -6.91028E+01 -7.19976E+01 -6.95067E+01 -7.16946E+01 -6.92176E+01
  -7.10988E+01 -7.26012E+01 -7.34043E+01 -7.27337E+01 -7.08345E+01 -7.27253E+01 -7.37214E+01 -7.26978E+01 -7.12000E+01 -7.32375E+01
  -7.33273E+01 -7.42401E+01 -7.28063E+01 -7.46418E+01 -7.37585E+01 -7.40849E+01 -7.51778E+01 -7.24807E+01 -7.34158E+01 -7.15758E+01
  -7.60174E+01 -7.40443E+01 -7.67010E+01 -7.58288E+01 -7.55106E+01 -7.49239E+01 -7.67235E+01 -7.84820E+01 -7.79549E+01 -7.51856E+01
  -7.57094E+01 -7.63805E+01 -7.79516E+01 -7.86634E+01 -8.24266E+01 -7.94647E+01 -8.08393E+01 -7.85403E+01 -7.98985E+01 -8.19015E+01
  -7.87089E+01 -8.04206E+01 -8.15515E+01 -8.27263E+01 -7.88546E+01 -7.99057E+01 -7.85287E+01 -7.93135E+01 -7.83278E+01 -8.04832E+01
  -7.97504E+01 -7.77654E+01 -7.71138E+01 -8.11138E+01 -7.68683E+01 -7.51428E+01 -7.67444E+01 -7.46046E+01 -7.58315E+01 -7.60964E+01
  -7.60719E+01 -7.46429E+01 -7.69063E+01 -7.84092E+01 -7.77018E+01 -7.78728E+01 -7.36071E+01 -7.79340E+01 -7.97373E+01 -7.65105E+01
  -7.70059E+01 -7.54720E+01 -7.34783E+01 -7.30363E+01 -7.47453E+01 -7.45371E+01 -7.43806E+01 -7.26282E+01 -7.18919E+01 -7.15047E+01
  -6.93891E+01 -6.72917E+01 -6.76122E+01 -6.85393E+01 -6.59575E+01 -6.28876E+01 -6.16764E+01 -6.11922E+01 -6.52855E+01 -5.81243E+01
  -6.09206E+01 -5.81827E+01 -5.29415E+01 -5.68392E+01 -5.24918E+01 -4.85190E+01 -5.15160E+01 -4.61724E+01 -4.50835E+01 -4.49456E+01
  -4.18510E+01 -3.87540E+01 -3.60098E+01 -3.45214E+01 -2.80865E+01 -2.87990E+01 -2.32220E+01 -1.75406E+01 -1.27058E+01 -4.89382E+00
   1.75467E-02  6.14905E+00  9.72290E+00  1.93539E+01  3.22170E+01  4.12241E+01  4.88076E+01  5.99861E+01  7.35645E+01  9.19656E+01
   1.05247E+02  1.25215E+02  1.45078E+02  1.70064E+02  1.91862E+02  2.18565E+02  2.50825E+02  2.82198E+02  3.16769E+02  3.53978E+02
   3.96338E+02  4.39578E+02  4.78325E+02  5.28513E+02  5.69781E+02  6.11496E+02  6.50796E+02  6.92862E+02  7.26150E+02  7.55299E+02
   7.74862E+02  7.94698E+02  8.04395E+02  8.11974E+02  8.16992E+02  8.13647E+02  8.09315E+02  8.04969E+02  8.01206E+02  7.91063E+02
   7.76115E+02  7.69597E+02  7.51267E+02  7.35547E+02  7.11024E+02  6.87266E+02  6.60886E+02  6.31124E+02  5.97980E+02  5.63212E+02
   5.27020E+02  4.92739E+02  4.56686E+02  4.25025E+02  3.95612E+02  3.69168E+02  3.43181E+02  3.25448E+02  3.01976E+02  2.84386E+02
   2.70575E+02  2.57225E+02  2.43601E+02  2.31659E+02  2.23690E+02  2.15415E+02  2.08631E+02  2.02353E+02  1.92969E+02  1.92824E+02
   1.87333E+02  1.83302E+02  1.79891E+02  1.76761E+02  1.75505E+02  1.74680E+02  1.70911E+02  1.69520E+02  1.72089E+02  1.68465E+02
   1.66201E+02  1.66210E+02  1.66321E+02  1.63456E+02  1.65404E+02  1.62278E+02  1.57964E+02  1.62799E+02  1.62481E+02  1.60117E+02
   1.57333E+02  1.58965E+02  1.60727E+02  1.56308E+02  1.55694E+02  1.56053E+02  1.53029E+02  1.53541E+02  1.52314E+02  1.52114E+02
   1.49658E+02  1.43860E+02  1.45240E+02  1.40013E+02  1.35457E+02  1.30121E+02  1.29947E+02  1.29312E+02  1.20845E+02  1.18678E+02
   1.16130E+02  1.12666E+02  1.12066E+02  1.06485E+02  9.93488E+01  9.56028E+01  9.47679E+01  9.10791E+01  8.72007E+01  8.46685E+01
   8.06533E+01  7.47755E+01  7.78846E+01  7.01825E+01  7.13640E+01  6.71371E+01  6.51453E+01  6.11765E+01  5.69248E+01  5.58961E+01
   5.21736E+01  5.37351E+01  4.69819E+01  4.66880E+01  4.10552E+01  3.87726E+01  4.02045E+01  3.70742E+01  3.31250E+01  3.29433E+01
   2.86430E+01  2.62224E+01  2.24507E+01  2.10203E+01  1.98207E+01  1.89461E+01  1.29984E+01  1.26516E+01  1.03769E+01  9.92373E+00
   4.06097E+00  9.74497E+00  3.09587E+00  2.17985E+00  1.75173E+00 -1.49679E+00 -1.62520E+00 -5.23867E+00 -6.60970E+00 -3.55729E+00
  -9.96540E+00 -1.30035E+01 -8.28164E+00 -1.48261E+01 -1.50847E+01 -1.65437E+01 -1.88977E+01 -2.02113E+01 -1.89142E+01 -2.00333E+01
  -2.05609E+01 -1.94588E+01 -2.68902E+01 -2.67046E+01 -2.74240E+01 -2.96424E+01 -2.53791E+01 -3.25649E+01 -2.99733E+01 -2.90505E+01
  -3.25625E+01 -3.23515E+01 -3.37273E+01 -3.22437E+01 -3.68198E+01 -3.39357E+01 -3.76093E+01 -3.85141E+01 -3.52330E+01 -3.55976E+01
  -3.66813E+01 -4.11215E+01 -4.25298E+01 -4.27474E+01 -4.18314E+01 -4.21306E+01 -4.23929E+01 -4.37738E+01 -4.29980E+01 -4.53344E+01
  -4.50977E+01 -4.54312E+01 -4.46950E+01 -4.58592E+01 -4.56147E+01 -4.68308E+01 -4.40387E+01 -4.59752E+01 -4.55172E+01 -4.96615E+01
  -4.73994E+01 -4.76876E+01 -4.91653E+01 -4.88481E+01 -5.14303E+01 -4.99892E+01 -5.22453E+01 -4.88489E+01 -5.05296E+01 -5.05166E+01
  -5.01583E+01 -5.18516E+01 -4.89783E+01 -5.11759E+01 -5.28210E+01 -5.22242E+01 -4.91504E+01 -5.12203E+01
 NY points of the fit to the data follow
  -4.92853E+01 -4.61961E+01 -4.99118E+01 -4.76217E+01 -5.05298E+01 -4.82022E+01 -5.04844E+01 -4.78422E+01 -4.92930E+01 -4.61673E+01
  -4.75576E+01 -4.48300E+01 -4.66376E+01 -4.38663E+01 -4.67370E+01 -4.44230E+01 -4.85781E+01 -4.62944E+01 -5.09482E+01 -4.85262E+01
  -5.31465E+01 -4.97253E+01 -5.36750E+01 -4.93467E+01 -5.27749E+01 -4.84817E+01 -5.17623E+01 -4.84083E+01 -5.16468E+01 -4.92513E+01
  -5.21075E+01 -5.04824E+01 -5.24954E+01 -5.14056E+01 -5.23572E+01 -5.17972E+01 -5.18971E+01 -5.18338E+01 -5.11114E+01 -5.17253E+01
  -5.07565E+01 -5.17180E+01 -5.05044E+01 -5.18439E+01 -5.05747E+01 -5.21437E+01 -5.04565E+01 -5.16293E+01 -5.07126E+01 -5.22855E+01
  -5.18521E+01 -5.34638E+01 -5.32813E+01 -5.49285E+01 -5.50452E+01 -5.55100E+01 -5.49644E+01 -5.49346E+01 -5.43603E+01 -5.41890E+01
  -5.37092E+01 -5.35441E+01 -5.35141E+01 -5.36698E+01 -5.37508E+01 -5.39605E+01 -5.40623E+01 -5.42879E+01 -5.43910E+01 -5.46011E+01
  -5.46912E+01 -5.49143E+01 -5.50242E+01 -5.52696E+01 -5.53955E+01 -5.56558E+01 -5.57916E+01 -5.60626E+01 -5.62006E+01 -5.64796E+01
  -5.66187E+01 -5.68920E+01 -5.70246E+01 -5.72905E+01 -5.74177E+01 -5.76648E+01 -5.77788E+01 -5.79949E+01 -5.80833E+01 -5.82767E+01
  -5.83342E+01 -5.85068E+01 -5.85301E+01 -5.86957E+01 -5.86838E+01 -5.88672E+01 -5.88397E+01 -5.90584E+01 -5.90288E+01 -5.92777E+01
  -5.92513E+01 -5.95249E+01 -5.95093E+01 -5.98117E+01 -5.98167E+01 -6.01537E+01 -6.01855E+01 -6.05395E+01 -6.05848E+01 -6.09223E+01
  -6.09792E+01 -6.12547E+01 -6.13350E+01 -6.15306E+01 -6.16394E+01 -6.17287E+01 -6.18634E+01 -6.18406E+01 -6.20160E+01 -6.19195E+01
  -6.21776E+01 -6.20611E+01 -6.23903E+01 -6.22751E+01 -6.26422E+01 -6.25147E+01 -6.28945E+01 -6.28225E+01 -6.32200E+01 -6.32246E+01
  -6.35994E+01 -6.36810E+01 -6.40201E+01 -6.41912E+01 -6.45051E+01 -6.47741E+01 -6.50729E+01 -6.54294E+01 -6.56980E+01 -6.61227E+01
  -6.63487E+01 -6.68066E+01 -6.69953E+01 -6.74607E+01 -6.76324E+01 -6.80945E+01 -6.82653E+01 -6.87070E+01 -6.88549E+01 -6.92228E+01
  -6.93920E+01 -6.97344E+01 -6.99449E+01 -7.02660E+01 -7.05114E+01 -7.07947E+01 -7.10290E+01 -7.12899E+01 -7.15504E+01 -7.18013E+01
  -7.20830E+01 -7.23226E+01 -7.25924E+01 -7.28137E+01 -7.30536E+01 -7.32638E+01 -7.34947E+01 -7.37064E+01 -7.39366E+01 -7.41531E+01
  -7.43891E+01 -7.46031E+01 -7.48367E+01 -7.50370E+01 -7.52568E+01 -7.54269E+01 -7.56405E+01 -7.57833E+01 -7.60202E+01 -7.61527E+01
  -7.64363E+01 -7.65827E+01 -7.69138E+01 -7.70568E+01 -7.73834E+01 -7.74915E+01 -7.77529E+01 -7.77797E+01 -7.79204E+01 -7.78424E+01
  -7.78493E+01 -7.77242E+01 -7.77663E+01 -7.76595E+01 -7.78810E+01 -7.78055E+01 -7.81546E+01 -7.80523E+01 -7.83982E+01 -7.81823E+01
  -7.83724E+01 -7.80171E+01 -7.80269E+01 -7.75925E+01 -7.74795E+01 -7.71385E+01 -7.70751E+01 -7.69338E+01 -7.70216E+01 -7.70165E+01
  -7.72750E+01 -7.73214E+01 -7.75734E+01 -7.75423E+01 -7.76890E+01 -7.74979E+01 -7.75337E+01 -7.72002E+01 -7.72589E+01 -7.68624E+01
  -7.69886E+01 -7.64887E+01 -7.65945E+01 -7.59097E+01 -7.59568E+01 -7.51352E+01 -7.51585E+01 -7.43031E+01 -7.41714E+01 -7.34081E+01
  -7.30532E+01 -7.25354E+01 -7.20884E+01 -7.18493E+01 -7.10921E+01 -7.10853E+01 -7.00277E+01 -7.01385E+01 -6.86550E+01 -6.89234E+01
  -6.72807E+01 -6.76742E+01 -6.58978E+01 -6.63675E+01 -6.45695E+01 -6.50327E+01 -6.30450E+01 -6.32479E+01 -6.11185E+01 -6.09740E+01
  -5.87484E+01 -5.81882E+01 -5.58986E+01 -5.49164E+01 -5.26436E+01 -5.12064E+01 -4.89248E+01 -4.70572E+01 -4.47993E+01 -4.24822E+01
  -4.00503E+01 -3.72570E+01 -3.46061E+01 -3.13068E+01 -2.83300E+01 -2.46170E+01 -2.11668E+01 -1.68516E+01 -1.27349E+01 -7.64912E+00
  -2.59643E+00  3.51591E+00  9.77875E+00  1.72569E+01  2.51793E+01  3.45276E+01  4.46927E+01  5.65212E+01  6.96027E+01  8.46165E+01
   1.01340E+02  1.20306E+02  1.41482E+02  1.65178E+02  1.91420E+02  2.20319E+02  2.51898E+02  2.85999E+02  3.22561E+02  3.61226E+02
   4.01714E+02  4.43473E+02  4.86015E+02  5.28625E+02  5.70661E+02  6.11348E+02  6.49983E+02  6.85822E+02  7.18236E+02  7.46650E+02
   7.70632E+02  7.89875E+02  8.04227E+02  8.13702E+02  8.18480E+02  8.18906E+02  8.15516E+02  8.09083E+02  8.00722E+02  7.91105E+02
   7.79137E+02  7.67382E+02  7.50035E+02  7.34234E+02  7.10561E+02  6.89696E+02  6.57945E+02  6.32269E+02  5.93594E+02  5.65345E+02
   5.23880E+02  4.94661E+02  4.54391E+02  4.28012E+02  3.92751E+02  3.71018E+02  3.42271E+02  3.24126E+02  3.01570E+02  2.85765E+02
   2.68601E+02  2.55658E+02  2.42969E+02  2.31761E+02  2.23911E+02  2.14163E+02  2.09944E+02  2.00550E+02  1.97943E+02  1.89387E+02
   1.88746E+02  1.81120E+02  1.81691E+02  1.76318E+02  1.76603E+02  1.72986E+02  1.72553E+02  1.70098E+02  1.70403E+02  1.70374E+02
   1.67973E+02  1.67563E+02  1.64793E+02  1.65369E+02  1.62666E+02  1.62663E+02  1.58940E+02  1.61329E+02  1.59886E+02  1.61568E+02
   1.59905E+02  1.60124E+02  1.58176E+02  1.57683E+02  1.55810E+02  1.54750E+02  1.53441E+02  1.51841E+02  1.51709E+02  1.51372E+02
   1.49941E+02  1.47666E+02  1.45220E+02  1.41423E+02  1.37927E+02  1.32217E+02  1.27806E+02  1.24072E+02  1.20597E+02  1.17247E+02
   1.13976E+02  1.10767E+02  1.07612E+02  1.04508E+02  1.01446E+02  9.84180E+01  9.54103E+01  9.24111E+01  8.94070E+01  8.63886E+01
   8.33478E+01  8.02814E+01  7.71887E+01  7.40745E+01  7.09455E+01  6.78134E+01  6.46901E+01  6.15902E+01  5.85271E+01  5.55156E+01
   5.25674E+01  4.96945E+01  4.69046E+01  4.42048E+01  4.15978E+01  3.90857E+01  3.66664E+01  3.43376E+01  3.20930E+01  2.99268E+01
   2.78303E+01  2.57961E+01  2.38144E+01  2.18776E+01  1.99763E+01  1.81037E+01  1.62521E+01  1.44166E+01  1.25918E+01  1.07750E+01
   8.96294E+00  7.15550E+00  5.35171E+00  3.55354E+00  1.76191E+00 -1.97297E-02 -1.78931E+00 -3.54237E+00 -5.27610E+00 -6.98566E+00
  -8.66819E+00 -1.03191E+01 -1.19360E+01 -1.35147E+01 -1.50534E+01 -1.65487E+01 -1.79998E+01 -1.94043E+01 -2.07619E+01 -2.20712E+01
  -2.33327E+01 -2.45456E+01 -2.57112E+01 -2.68294E+01 -2.79019E+01 -2.89290E+01 -2.99128E+01 -3.08537E+01 -3.17543E+01 -3.26151E+01
  -3.34388E+01 -3.42260E+01 -3.49792E+01 -3.56991E+01 -3.63883E+01 -3.70474E+01 -3.76788E+01 -3.82831E+01 -3.88625E+01 -3.94175E+01
  -3.99503E+01 -4.04613E+01 -4.09524E+01 -4.14239E+01 -4.18777E+01 -4.23140E+01 -4.27346E+01 -4.31394E+01 -4.35302E+01 -4.39068E+01
  -4.42710E+01 -4.46226E+01 -4.49630E+01 -4.52920E+01 -4.56112E+01 -4.59200E+01 -4.62200E+01 -4.65108E+01 -4.67938E+01 -4.70683E+01
  -4.73358E+01 -4.75957E+01 -4.78493E+01 -4.80960E+01 -4.83370E+01 -4.85717E+01 -4.88013E+01 -4.90250E+01 -4.92442E+01 -4.94579E+01
  -4.96673E+01 -4.98716E+01 -5.00718E+01 -5.02671E+01 -5.04585E+01 -5.06448E+01 -5.08270E+01 -5.10037E+01
 NY background values follow
    -5.357E+01   -5.365E+01   -5.373E+01   -5.380E+01   -5.388E+01   -5.396E+01   -5.404E+01   -5.411E+01   -5.419E+01   -5.426E+01
    -5.434E+01   -5.441E+01   -5.448E+01   -5.456E+01   -5.463E+01   -5.470E+01   -5.477E+01   -5.484E+01   -5.492E+01   -5.499E+01
    -5.506E+01   -5.513E+01   -5.520E+01   -5.528E+01   -5.535E+01   -5.542E+01   -5.549E+01   -5.556E+01   -5.564E+01   -5.571E+01
    -5.578E+01   -5.586E+01   -5.593E+01   -5.600E+01   -5.608E+01   -5.615E+01   -5.623E+01   -5.631E+01   -5.638E+01   -5.646E+01
    -5.654E+01   -5.662E+01   -5.670E+01   -5.678E+01   -5.687E+01   -5.695E+01   -5.703E+01   -5.712E+01   -5.720E+01   -5.729E+01
    -5.738E+01   -5.747E+01   -5.756E+01   -5.765E+01   -5.775E+01   -5.784E+01   -5.794E+01   -5.804E+01   -5.814E+01   -5.824E+01
    -5.834E+01   -5.844E+01   -5.855E+01   -5.866E+01   -5.876E+01   -5.888E+01   -5.899E+01   -5.910E+01   -5.922E+01   -5.934E+01
    -5.946E+01   -5.958E+01   -5.970E+01   -5.983E+01   -5.996E+01   -6.009E+01   -6.022E+01   -6.036E+01   -6.050E+01   -6.064E+01
    -6.078E+01   -6.092E+01   -6.107E+01   -6.122E+01   -6.137E+01   -6.153E+01   -6.168E+01   -6.184E+01   -6.201E+01   -6.217E+01
    -6.234E+01   -6.251E+01   -6.268E+01   -6.285E+01   -6.303E+01   -6.321E+01   -6.339E+01   -6.357E+01   -6.376E+01   -6.394E+01
    -6.413E+01   -6.433E+01   -6.452E+01   -6.472E+01   -6.491E+01   -6.512E+01   -6.532E+01   -6.552E+01   -6.573E+01   -6.594E+01
    -6.615E+01   -6.636E+01   -6.658E+01   -6.679E+01   -6.701E+01   -6.723E+01   -6.745E+01   -6.768E+01   -6.790E+01   -6.813E+01
    -6.836E+01   -6.859E+01   -6.882E+01   -6.906E+01   -6.929E+01   -6.953E+01   -6.977E+01   -7.001E+01   -7.025E+01   -7.050E+01
    -7.074E+01   -7.099E+01   -7.124E+01   -7.149E+01   -7.174E+01   -7.199E+01   -7.225E+01   -7.250E+01   -7.276E+01   -7.302E+01
    -7.328E+01   -7.354E+01   -7.380E+01   -7.407E+01   -7.433E+01   -7.460E+01   -7.487E+01   -7.513E+01   -7.540E+01   -7.567E+01
    -7.595E+01   -7.622E+01   -7.649E+01   -7.677E+01   -7.705E+01   -7.732E+01   -7.760E+01   -7.788E+01   -7.816E+01   -7.844E+01
    -7.872E+01   -7.901E+01   -7.929E+01   -7.958E+01   -7.986E+01   -8.015E+01   -8.043E+01   -8.072E+01   -8.101E+01   -8.130E+01
    -8.159E+01   -8.188E+01   -8.217E+01   -8.246E+01   -8.275E+01   -8.304E+01   -8.333E+01   -8.362E+01   -8.390E+01   -8.419E+01
    -8.448E+01   -8.477E+01   -8.505E+01   -8.534E+01   -8.562E+01   -8.590E+01   -8.619E+01   -8.647E+01   -8.674E+01   -8.702E+01
    -8.730E+01   -8.757E+01   -8.784E+01   -8.811E+01   -8.838E+01   -8.864E+01   -8.890E+01   -8.916E+01   -8.942E+01   -8.968E+01
    -8.993E+01   -9.018E+01   -9.042E+01   -9.067E+01   -9.091E+01   -9.114E+01   -9.138E+01   -9.161E+01   -9.183E+01   -9.205E+01
    -9.227E+01   -9.249E+01   -9.270E+01   -9.290E+01   -9.310E+01   -9.330E+01   -9.349E+01   -9.368E+01   -9.387E+01   -9.405E+01
    -9.422E+01   -9.439E+01   -9.455E+01   -9.471E+01   -9.486E+01   -9.501E+01   -9.515E+01   -9.529E+01   -9.542E+01   -9.555E+01
    -9.567E+01   -9.578E+01   -9.589E+01   -9.599E+01   -9.608E+01   -9.617E+01   -9.625E+01   -9.632E+01   -9.639E+01   -9.645E+01
    -9.650E+01   -9.655E+01   -9.659E+01   -9.662E+01   -9.664E+01   -9.666E+01   -9.667E+01   -9.667E+01   -9.666E+01   -9.665E+01
    -9.663E+01   -9.660E+01   -9.656E+01   -9.651E+01   -9.646E+01   -9.640E+01   -9.633E+01   -9.625E+01   -9.617E+01   -9.608E+01
    -9.599E+01   -9.589E+01   -9.578E+01   -9.566E+01   -9.554E+01   -9.541E+01   -9.528E+01   -9.514E+01   -9.499E+01   -9.484E+01
    -9.468E+01   -9.452E+01   -9.435E+01   -9.418E+01   -9.400E+01   -9.382E+01   -9.363E+01   -9.344E+01   -9.324E+01   -9.304E+01
    -9.283E+01   -9.262E+01   -9.241E+01   -9.219E+01   -9.196E+01   -9.174E+01   -9.151E+01   -9.127E+01   -9.104E+01   -9.080E+01
    -9.055E+01   -9.031E+01   -9.006E+01   -8.981E+01   -8.955E+01   -8.929E+01   -8.903E+01   -8.877E+01   -8.851E+01   -8.824E+01
    -8.797E+01   -8.770E+01   -8.743E+01   -8.716E+01   -8.688E+01   -8.661E+01   -8.633E+01   -8.605E+01   -8.577E+01   -8.549E+01
    -8.521E+01   -8.493E+01   -8.464E+01   -8.436E+01   -8.408E+01   -8.379E+01   -8.351E+01   -8.323E+01   -8.294E+01   -8.266E+01
    -8.238E+01   -8.210E+01   -8.182E+01   -8.154E+01   -8.126E+01   -8.098E+01   -8.070E+01   -8.043E+01   -8.015E+01   -7.988E+01
    -7.961E+01   -7.934E+01   -7.907E+01   -7.881E+01   -7.854E+01   -7.828E+01   -7.802E+01   -7.776E+01   -7.751E+01   -7.726E+01
    -7.700E+01   -7.675E+01   -7.651E+01   -7.626E+01   -7.602E+01   -7.577E+01   -7.553E+01   -7.529E+01   -7.506E+01   -7.482E+01
    -7.459E+01   -7.436E+01   -7.413E+01   -7.390E+01   -7.368E+01   -7.346E+01   -7.324E+01   -7.302E+01   -7.280E+01   -7.258E+01
    -7.237E+01   -7.216E+01   -7.195E+01   -7.174E+01   -7.154E+01   -7.133E+01   -7.113E+01   -7.093E+01   -7.073E+01   -7.054E+01
    -7.034E+01   -7.015E+01   -6.996E+01   -6.977E+01   -6.959E+01   -6.940E+01   -6.922E+01   -6.904E+01   -6.886E+01   -6.868E+01
    -6.851E+01   -6.833E+01   -6.816E+01   -6.799E+01   -6.783E+01   -6.766E+01   -6.750E+01   -6.733E+01   -6.717E+01   -6.702E+01
    -6.686E+01   -6.671E+01   -6.655E+01   -6.640E+01   -6.626E+01   -6.611E+01   -6.596E+01   -6.582E+01   -6.568E+01   -6.554E+01
    -6.540E+01   -6.527E+01   -6.514E+01   -6.500E+01   -6.488E+01   -6.475E+01   -6.462E+01   -6.450E+01   -6.438E+01   -6.426E+01
    -6.414E+01   -6.402E+01   -6.391E+01   -6.379E+01   -6.368E+01   -6.358E+01   -6.347E+01   -6.336E+01   -6.326E+01   -6.316E+01
    -6.306E+01   -6.296E+01   -6.287E+01   -6.277E+01   -6.268E+01   -6.259E+01   -6.250E+01   -6.242E+01   -6.233E+01   -6.225E+01
    -6.217E+01   -6.209E+01   -6.201E+01   -6.193E+01   -6.186E+01   -6.179E+01   -6.172E+01   -6.165E+01   -6.158E+01   -6.152E+01
    -6.145E+01   -6.139E+01   -6.133E+01   -6.128E+01   -6.122E+01   -6.117E+01   -6.111E+01   -6.106E+01   -6.101E+01   -6.097E+01
    -6.092E+01   -6.088E+01   -6.083E+01   -6.079E+01   -6.075E+01   -6.072E+01   -6.068E+01   -6.065E+01   -6.061E+01   -6.058E+01
    -6.056E+01   -6.053E+01   -6.050E+01   -6.048E+01   -6.046E+01   -6.044E+01   -6.042E+01   -6.040E+01   -6.039E+01   -6.037E+01
    -6.036E+01   -6.035E+01   -6.034E+01   -6.033E+01   -6.033E+01   -6.032E+01   -6.032E+01   -6.032E+01   -6.032E+01   -6.032E+01
    -6.033E+01   -6.033E+01   -6.034E+01   -6.035E+01   -6.036E+01   -6.037E+01   -6.038E+01   -6.040E+01   -6.041E+01   -6.043E+01
    -6.045E+01   -6.047E+01   -6.049E+01   -6.052E+01   -6.054E+01   -6.057E+01   -6.060E+01   -6.063E+01
 Ala      Conc. = 4.70E+04
