 LCModel (Version 6.3-1L) Copyright: S.W. Provencher.          Ref.: Magn. Reson. Med. 30:672-679 (1993).                
 Slice#1 Row#8 Col#1  K_02_press_1_raw_act
 36 lines in following concentration table = NCONC+1
    Conc.  %SD /Cr+PCr  Metabolite                                         
   41.235  96%   0.370 Ala                                                 
   24.184 100%   0.217 Asp                                                 
   22.868 237%   0.205 Cr                                                  
   88.522  61%   0.795 PCr                                                 
   10.488 139% 9.4E-02 GABA                                                
   10.392 141% 9.3E-02 Glc                                                 
  122.829  65%   1.103 Gln                                                 
  246.063  37%   2.209 Glu                                                 
   37.930  21%   0.341 GPC                                                 
    0.000 999%   0.000 PCh                                                 
    7.146 397% 6.4E-02 GSH                                                 
    0.000 999%   0.000 Ins                                                 
    0.000 999%   0.000 Lac                                                 
  202.691  15%   1.820 NAA                                                 
   57.385  53%   0.515 NAAG                                                
    3.223 141% 2.9E-02 Scyllo                                              
    2.555 941% 2.3E-02 Tau                                                 
    0.000 999%   0.000 -CrCH2                                              
   37.930  21%   0.341 GPC+PCh                                             
  260.076  11%   2.335 NAA+NAAG                                            
  111.389  18%   1.000 Cr+PCr                                              
  368.892  33%   3.312 Glu+Gln                                             
    0.000 999%   0.000 Lip13a                                              
  144.279  34%   1.295 Lip13b                                              
   36.446  58%   0.327 Lip09                                               
    3.435 999% 3.1E-02 MM09                                                
   23.195  59%   0.208 Lip20                                               
    6.502 933% 5.8E-02 MM20                                                
    0.765 999% 6.9E-03 MM12                                                
   14.498 264%   0.130 MM14                                                
    0.000 999%   0.000 MM17                                                
  144.279  34%   1.295 Lip13a+Lip13b                                       
  159.542  43%   1.432 MM14+Lip13a+Lip13b+MM12                             
   39.882 106%   0.358 MM09+Lip09                                          
   29.697 208%   0.267 MM20+Lip20                                          
   6 lines in following misc. output table
  FWHM = 0.046 ppm    S/N =   3                                            
  Data shift = 0.015 ppm                                                   
  Ph:  61 deg     -18.8 deg/ppm                                            
  alphaB,S = 8.0E-01,   2.7E+01                                            
   14 spline knots.   Ns = 5(1)                                            
  ( 8) 4 infls.   ( 9) 1 extrs.                                            
  498 points on ppm-axis = NY
      4.000000     3.992357     3.984714     3.977070     3.969427     3.961784     3.954141     3.946497     3.938854     3.931211
      3.923568     3.915925     3.908281     3.900638     3.892995     3.885352     3.877708     3.870065     3.862422     3.854779
      3.847136     3.839492     3.831849     3.824206     3.816563     3.808919     3.801276     3.793633     3.785990     3.778347
      3.770703     3.763060     3.755417     3.747774     3.740130     3.732487     3.724844     3.717201     3.709558     3.701914
      3.694271     3.686628     3.678985     3.671341     3.663698     3.656055     3.648412     3.640769     3.633125     3.625482
      3.617839     3.610196     3.602552     3.594909     3.587266     3.579623     3.571980     3.564336     3.556693     3.549050
      3.541407     3.533763     3.526120     3.518477     3.510834     3.503191     3.495547     3.487904     3.480261     3.472618
      3.464974     3.457331     3.449688     3.442045     3.434402     3.426758     3.419115     3.411472     3.403829     3.396185
      3.388542     3.380899     3.373256     3.365613     3.357969     3.350326     3.342683     3.335040     3.327396     3.319753
      3.312110     3.304467     3.296824     3.289180     3.281537     3.273894     3.266251     3.258607     3.250964     3.243321
      3.235678     3.228034     3.220391     3.212748     3.205105     3.197462     3.189818     3.182175     3.174532     3.166889
      3.159245     3.151602     3.143959     3.136316     3.128673     3.121029     3.113386     3.105743     3.098100     3.090456
      3.082813     3.075170     3.067527     3.059884     3.052240     3.044597     3.036954     3.029311     3.021667     3.014024
      3.006381     2.998738     2.991095     2.983451     2.975808     2.968165     2.960522     2.952878     2.945235     2.937592
      2.929949     2.922306     2.914662     2.907019     2.899376     2.891733     2.884089     2.876446     2.868803     2.861160
      2.853517     2.845873     2.838230     2.830587     2.822944     2.815300     2.807657     2.800014     2.792371     2.784728
      2.777084     2.769441     2.761798     2.754155     2.746511     2.738868     2.731225     2.723582     2.715939     2.708295
      2.700652     2.693009     2.685366     2.677722     2.670079     2.662436     2.654793     2.647150     2.639506     2.631863
      2.624220     2.616577     2.608933     2.601290     2.593647     2.586004     2.578361     2.570717     2.563074     2.555431
      2.547788     2.540144     2.532501     2.524858     2.517215     2.509572     2.501928     2.494285     2.486642     2.478999
      2.471355     2.463712     2.456069     2.448426     2.440783     2.433139     2.425496     2.417853     2.410210     2.402566
      2.394923     2.387280     2.379637     2.371994     2.364350     2.356707     2.349064     2.341421     2.333777     2.326134
      2.318491     2.310848     2.303205     2.295561     2.287918     2.280275     2.272632     2.264988     2.257345     2.249702
      2.242059     2.234416     2.226772     2.219129     2.211486     2.203843     2.196199     2.188556     2.180913     2.173270
      2.165627     2.157983     2.150340     2.142697     2.135054     2.127410     2.119767     2.112124     2.104481     2.096838
      2.089194     2.081551     2.073908     2.066265     2.058621     2.050978     2.043335     2.035692     2.028049     2.020405
      2.012762     2.005119     1.997476     1.989833     1.982190     1.974546     1.966903     1.959260     1.951617     1.943974
      1.936331     1.928688     1.921045     1.913402     1.905759     1.898115     1.890472     1.882829     1.875186     1.867543
      1.859900     1.852257     1.844614     1.836971     1.829327     1.821684     1.814041     1.806398     1.798755     1.791112
      1.783469     1.775826     1.768183     1.760540     1.752896     1.745253     1.737610     1.729967     1.722324     1.714681
      1.707038     1.699395     1.691752     1.684108     1.676465     1.668822     1.661179     1.653536     1.645893     1.638250
      1.630607     1.622964     1.615321     1.607677     1.600034     1.592391     1.584748     1.577105     1.569462     1.561819
      1.554176     1.546533     1.538890     1.531246     1.523603     1.515960     1.508317     1.500674     1.493031     1.485388
      1.477745     1.470102     1.462458     1.454815     1.447172     1.439529     1.431886     1.424243     1.416600     1.408957
      1.401314     1.393671     1.386027     1.378384     1.370741     1.363098     1.355455     1.347812     1.340169     1.332526
      1.324883     1.317240     1.309596     1.301953     1.294310     1.286667     1.279024     1.271381     1.263738     1.256095
      1.248452     1.240808     1.233165     1.225522     1.217879     1.210236     1.202593     1.194950     1.187307     1.179664
      1.172021     1.164377     1.156734     1.149091     1.141448     1.133805     1.126162     1.118519     1.110876     1.103233
      1.095590     1.087946     1.080303     1.072660     1.065017     1.057374     1.049731     1.042088     1.034445     1.026802
      1.019158     1.011515     1.003872     0.996229     0.988586     0.980943     0.973300     0.965657     0.958014     0.950371
      0.942727     0.935084     0.927441     0.919798     0.912155     0.904512     0.896869     0.889226     0.881583     0.873940
      0.866296     0.858653     0.851010     0.843367     0.835724     0.828081     0.820438     0.812795     0.805152     0.797508
      0.789865     0.782222     0.774579     0.766936     0.759293     0.751650     0.744007     0.736364     0.728721     0.721077
      0.713434     0.705791     0.698148     0.690505     0.682862     0.675219     0.667576     0.659933     0.652290     0.644646
      0.637003     0.629360     0.621717     0.614074     0.606431     0.598788     0.591145     0.583502     0.575858     0.568215
      0.560572     0.552929     0.545286     0.537643     0.530000     0.522357     0.514714     0.507071     0.499427     0.491784
      0.484141     0.476498     0.468855     0.461212     0.453569     0.445925     0.438282     0.430639     0.422996     0.415353
      0.407710     0.400067     0.392424     0.384780     0.377137     0.369494     0.361851     0.354208     0.346565     0.338922
      0.331278     0.323635     0.315992     0.308349     0.300706     0.293063     0.285420     0.277777     0.270133     0.262490
      0.254847     0.247204     0.239561     0.231918     0.224275     0.216631     0.208988     0.201345
 NY phased data points follow
   5.92703E+01  6.07396E+01  5.74014E+01  5.86448E+01  5.63008E+01  5.85835E+01  5.56581E+01  5.93554E+01  5.43538E+01  5.51407E+01
   5.53777E+01  5.63736E+01  5.48027E+01  5.29233E+01  5.25600E+01  5.47747E+01  4.93489E+01  5.23418E+01  5.33715E+01  4.78255E+01
   5.15085E+01  4.79482E+01  4.82271E+01  4.72294E+01  4.79856E+01  4.80430E+01  4.58407E+01  4.59577E+01  4.45510E+01  4.82281E+01
   4.73269E+01  4.39335E+01  4.43785E+01  4.55786E+01  4.45923E+01  4.23711E+01  4.45554E+01  4.19582E+01  4.21984E+01  4.09375E+01
   4.15173E+01  4.13023E+01  4.24837E+01  4.06233E+01  4.04693E+01  4.17341E+01  4.17198E+01  4.21738E+01  4.14350E+01  4.02165E+01
   4.00145E+01  3.97724E+01  3.89693E+01  3.91612E+01  3.68100E+01  3.80440E+01  3.72177E+01  3.64314E+01  3.47377E+01  3.71183E+01
   3.37392E+01  3.77717E+01  3.46336E+01  3.37983E+01  3.54393E+01  3.60622E+01  3.37285E+01  3.57072E+01  3.21211E+01  3.39856E+01
   3.46699E+01  3.40050E+01  3.43217E+01  2.95440E+01  3.19786E+01  3.31640E+01  3.26661E+01  3.25455E+01  3.13863E+01  3.22058E+01
   2.99944E+01  3.08772E+01  3.29884E+01  3.07256E+01  3.11942E+01  3.10886E+01  3.05723E+01  3.24388E+01  2.99537E+01  2.88954E+01
   2.82443E+01  3.22336E+01  2.61743E+01  2.55962E+01  2.94729E+01  2.88886E+01  3.04738E+01  2.68086E+01  2.93489E+01  2.75981E+01
   2.89776E+01  3.08348E+01  3.18145E+01  3.43241E+01  3.38617E+01  3.01035E+01  2.92127E+01  2.57757E+01  2.69535E+01  2.68764E+01
   2.72687E+01  2.71742E+01  2.71698E+01  2.72445E+01  2.68809E+01  2.53171E+01  2.67588E+01  2.41862E+01  2.22436E+01  2.65248E+01
   2.66021E+01  2.08445E+01  2.28097E+01  2.41207E+01  2.24799E+01  2.73771E+01  2.66014E+01  3.00004E+01  2.86728E+01  2.57172E+01
   2.47249E+01  2.54492E+01  2.42857E+01  2.27350E+01  2.46655E+01  2.27183E+01  2.52686E+01  2.29334E+01  2.31041E+01  2.50782E+01
   2.21670E+01  2.23571E+01  2.23815E+01  2.01283E+01  2.40669E+01  2.17757E+01  2.22944E+01  2.23869E+01  2.26289E+01  2.20932E+01
   1.90629E+01  2.31296E+01  2.19472E+01  2.01583E+01  1.93245E+01  2.07177E+01  1.98782E+01  2.13451E+01  2.19530E+01  2.08418E+01
   2.28780E+01  2.05143E+01  2.10097E+01  2.08010E+01  2.18117E+01  1.94610E+01  2.05284E+01  2.01249E+01  2.28645E+01  2.26650E+01
   2.12359E+01  1.70156E+01  1.96746E+01  2.27189E+01  2.22202E+01  1.98932E+01  1.81461E+01  1.93216E+01  1.99846E+01  1.73969E+01
   1.94910E+01  1.96589E+01  1.96461E+01  1.95298E+01  2.00876E+01  2.10196E+01  1.53585E+01  1.81483E+01  1.65971E+01  1.81744E+01
   1.55803E+01  1.83612E+01  1.78445E+01  1.95213E+01  1.96108E+01  1.88533E+01  1.53851E+01  1.88589E+01  1.42381E+01  1.74683E+01
   1.51829E+01  1.96824E+01  1.94400E+01  1.67498E+01  1.86146E+01  1.72151E+01  1.90737E+01  1.51649E+01  1.48050E+01  1.76677E+01
   1.55203E+01  1.57087E+01  1.74502E+01  1.47470E+01  1.73581E+01  1.96263E+01  1.81536E+01  2.01060E+01  1.82523E+01  1.76939E+01
   1.60307E+01  1.34201E+01  1.75522E+01  1.27844E+01  1.62441E+01  1.41233E+01  1.43880E+01  1.72111E+01  1.61640E+01  1.60791E+01
   1.75867E+01  1.85018E+01  1.59408E+01  1.55854E+01  1.75829E+01  1.61188E+01  1.54063E+01  1.69984E+01  1.43773E+01  1.60739E+01
   1.58829E+01  1.50456E+01  1.37192E+01  1.30697E+01  1.53180E+01  1.44395E+01  1.43835E+01  1.35314E+01  1.71119E+01  1.51383E+01
   1.60931E+01  1.40299E+01  1.53347E+01  1.80078E+01  1.92310E+01  1.72166E+01  1.64645E+01  1.53437E+01  2.20316E+01  2.32731E+01
   2.51586E+01  2.28406E+01  1.98031E+01  1.90094E+01  1.89789E+01  1.62908E+01  1.72122E+01  1.24250E+01  1.51649E+01  1.30853E+01
   1.28085E+01  1.66733E+01  1.47500E+01  1.24896E+01  1.13557E+01  1.23233E+01  1.33877E+01  1.28772E+01  1.17567E+01  1.11061E+01
   1.21625E+01  1.15305E+01  1.37660E+01  1.20162E+01  1.53524E+01  1.42832E+01  1.33215E+01  1.18516E+01  1.38537E+01  1.18132E+01
   1.20936E+01  1.24839E+01  1.41306E+01  1.22042E+01  1.30291E+01  8.38245E+00  1.27352E+01  1.15640E+01  1.16564E+01  9.90955E+00
   1.17255E+01  1.04753E+01  1.17180E+01  8.34599E+00  9.80743E+00  1.26030E+01  1.17417E+01  1.11921E+01  1.36676E+01  1.18191E+01
   9.21802E+00  1.19795E+01  9.07637E+00  1.37612E+01  8.84523E+00  1.20405E+01  1.12652E+01  1.34632E+01  1.24991E+01  1.06697E+01
   1.52477E+01  1.12951E+01  1.35899E+01  1.53982E+01  1.49084E+01  1.06993E+01  1.25278E+01  1.35201E+01  8.90027E+00  1.29948E+01
   1.42819E+01  1.31966E+01  1.01823E+01  8.80187E+00  8.20904E+00  1.11456E+01  1.01399E+01  8.37502E+00  8.58335E+00  1.27027E+01
   1.20225E+01  1.21948E+01  1.12113E+01  1.15452E+01  1.09099E+01  8.81101E+00  9.57704E+00  1.08366E+01  9.64058E+00  1.10024E+01
   1.14638E+01  1.15625E+01  1.22363E+01  1.02291E+01  1.44267E+01  1.10620E+01  1.09219E+01  1.27392E+01  1.15559E+01  1.08739E+01
   8.28895E+00  8.77404E+00  9.47095E+00  8.89573E+00  1.02288E+01  7.99763E+00  8.66128E+00  7.85310E+00  8.85569E+00  9.64030E+00
   8.38465E+00  4.90562E+00  1.11770E+01  1.07443E+01  8.38771E+00  1.15625E+01  6.08536E+00  7.40418E+00  6.97314E+00  8.15444E+00
   1.00068E+01  7.71983E+00  9.93899E+00  7.84135E+00  7.71378E+00  8.23761E+00  8.15959E+00  1.00674E+01  6.10417E+00  7.72856E+00
   7.62776E+00  8.19232E+00  9.17337E+00  7.97311E+00  4.73934E+00  3.67751E+00  8.03854E+00  4.74032E+00  7.52176E+00  8.32487E+00
   9.00086E+00  8.09594E+00  9.17503E+00  5.65037E+00  1.02373E+01  8.39377E+00  7.92254E+00  7.54257E+00  9.97850E+00  7.20536E+00
   9.02649E+00  5.99316E+00  5.01502E+00  7.81183E+00  7.25136E+00  7.40298E+00  8.80695E+00  9.67705E+00  8.56730E+00  8.02483E+00
   6.68535E+00  6.34217E+00  6.79776E+00  3.33619E+00  9.83348E+00  1.06550E+01  7.00077E+00  8.20957E+00  7.85310E+00  8.57957E+00
   7.85055E+00  6.79118E+00  6.41595E+00  6.55442E+00  8.75778E+00  6.65065E+00  4.04254E+00  8.59911E+00  1.16328E+01  5.51896E+00
   3.60021E+00  1.01200E+01  5.61130E+00  5.67161E+00  7.44170E+00  8.21833E+00  7.94777E+00  5.73745E+00  5.22764E+00  7.23749E+00
   3.73141E+00  7.58536E+00  6.05263E+00  7.27988E+00  5.76789E+00  6.32682E+00  3.76343E+00  4.62297E+00  6.16054E+00  1.52502E+00
   5.77639E+00  6.68360E+00  9.12254E+00  4.15754E+00  6.37824E+00  6.17532E+00  5.44757E+00  7.44831E+00  3.52956E+00  8.52623E+00
   8.17439E+00  5.47000E+00  5.56017E+00  6.29956E+00  6.32532E+00  5.93175E+00  5.47661E+00  7.68492E+00  6.25839E+00  4.78289E+00
   6.81874E+00  5.73842E+00  6.27657E+00  6.58010E+00  3.34026E+00  8.14315E+00  4.19417E+00  4.71426E+00  5.77270E+00  8.76843E+00
   6.33608E+00  2.93646E+00  5.85319E+00  5.46338E+00  3.55454E+00  1.95816E+00  7.06567E+00  3.72222E+00
 NY points of the fit to the data follow
   5.49905E+01  5.47076E+01  5.44404E+01  5.41910E+01  5.39661E+01  5.39018E+01  5.41409E+01  5.45952E+01  5.50009E+01  5.51147E+01
   5.48314E+01  5.42345E+01  5.34746E+01  5.26463E+01  5.18099E+01  5.10351E+01  5.04271E+01  4.99342E+01  4.95181E+01  4.91945E+01
   4.89278E+01  4.87045E+01  4.85089E+01  4.83012E+01  4.80010E+01  4.75291E+01  4.69096E+01  4.62723E+01  4.57847E+01  4.55646E+01
   4.56069E+01  4.57982E+01  4.59662E+01  4.59203E+01  4.55700E+01  4.49404E+01  4.41958E+01  4.35317E+01  4.30380E+01  4.27331E+01
   4.25636E+01  4.24487E+01  4.23308E+01  4.21626E+01  4.19213E+01  4.16009E+01  4.12383E+01  4.08892E+01  4.05738E+01  4.02892E+01
   4.00179E+01  3.97326E+01  3.94343E+01  3.91418E+01  3.88493E+01  3.85426E+01  3.82281E+01  3.79247E+01  3.76349E+01  3.73550E+01
   3.70804E+01  3.68100E+01  3.65458E+01  3.62881E+01  3.60346E+01  3.57824E+01  3.55308E+01  3.52800E+01  3.50311E+01  3.47854E+01
   3.45437E+01  3.43075E+01  3.40794E+01  3.38604E+01  3.36461E+01  3.34291E+01  3.32058E+01  3.29763E+01  3.27440E+01  3.25128E+01
   3.22844E+01  3.20601E+01  3.18560E+01  3.16914E+01  3.15565E+01  3.14162E+01  3.12402E+01  3.10223E+01  3.07805E+01  3.05365E+01
   3.02959E+01  3.00570E+01  2.98259E+01  2.96194E+01  2.94372E+01  2.92713E+01  2.91218E+01  2.89800E+01  2.88869E+01  2.91751E+01
   3.01030E+01  3.13669E+01  3.23107E+01  3.24875E+01  3.19100E+01  3.09555E+01  2.99390E+01  2.89177E+01  2.79111E+01  2.70835E+01
   2.66629E+01  2.64564E+01  2.62913E+01  2.61389E+01  2.59937E+01  2.58540E+01  2.57168E+01  2.55798E+01  2.54457E+01  2.53187E+01
   2.52016E+01  2.50909E+01  2.50240E+01  2.53070E+01  2.62126E+01  2.74860E+01  2.84971E+01  2.87837E+01  2.83245E+01  2.74651E+01
   2.65226E+01  2.55662E+01  2.46080E+01  2.37944E+01  2.33534E+01  2.31374E+01  2.29767E+01  2.28471E+01  2.27409E+01  2.26453E+01
   2.25500E+01  2.24529E+01  2.23581E+01  2.22709E+01  2.21846E+01  2.20881E+01  2.19803E+01  2.18667E+01  2.17537E+01  2.16437E+01
   2.15322E+01  2.14144E+01  2.12922E+01  2.11767E+01  2.10772E+01  2.09989E+01  2.09344E+01  2.08494E+01  2.07126E+01  2.05335E+01
   2.03562E+01  2.02311E+01  2.01751E+01  2.01530E+01  2.01153E+01  2.00445E+01  1.99446E+01  1.98232E+01  1.96897E+01  1.95631E+01
   1.94565E+01  1.93661E+01  1.92711E+01  1.91354E+01  1.89790E+01  1.88600E+01  1.88066E+01  1.87867E+01  1.87441E+01  1.86547E+01
   1.85555E+01  1.84994E+01  1.84913E+01  1.84766E+01  1.84197E+01  1.83583E+01  1.83396E+01  1.83783E+01  1.84423E+01  1.84888E+01
   1.84846E+01  1.84273E+01  1.83248E+01  1.81902E+01  1.80383E+01  1.78918E+01  1.77672E+01  1.76867E+01  1.76859E+01  1.77784E+01
   1.79346E+01  1.81115E+01  1.82757E+01  1.83724E+01  1.83389E+01  1.81125E+01  1.76379E+01  1.69548E+01  1.62573E+01  1.57505E+01
   1.55273E+01  1.55995E+01  1.59698E+01  1.66346E+01  1.74469E+01  1.81026E+01  1.83486E+01  1.81077E+01  1.75284E+01  1.67190E+01
   1.57461E+01  1.48609E+01  1.43726E+01  1.44303E+01  1.48839E+01  1.54423E+01  1.59514E+01  1.63577E+01  1.66058E+01  1.66282E+01
   1.64517E+01  1.62121E+01  1.59910E+01  1.57770E+01  1.55987E+01  1.55149E+01  1.55526E+01  1.56804E+01  1.58034E+01  1.58058E+01
   1.56441E+01  1.53760E+01  1.51022E+01  1.48852E+01  1.47647E+01  1.47182E+01  1.47166E+01  1.47444E+01  1.47791E+01  1.47966E+01
   1.47963E+01  1.48673E+01  1.51869E+01  1.58422E+01  1.66273E+01  1.71765E+01  1.75906E+01  1.86016E+01  2.04732E+01  2.24197E+01
   2.33717E+01  2.29029E+01  2.14570E+01  1.98331E+01  1.82536E+01  1.66332E+01  1.50964E+01  1.41050E+01  1.37520E+01  1.35748E+01
   1.34528E+01  1.33900E+01  1.33800E+01  1.33888E+01  1.33971E+01  1.33859E+01  1.33504E+01  1.32942E+01  1.32215E+01  1.31350E+01
   1.30477E+01  1.29750E+01  1.29207E+01  1.28773E+01  1.28360E+01  1.27934E+01  1.27488E+01  1.26996E+01  1.26446E+01  1.25902E+01
   1.25416E+01  1.24979E+01  1.24557E+01  1.24129E+01  1.23687E+01  1.23220E+01  1.22715E+01  1.22175E+01  1.21625E+01  1.21105E+01
   1.20627E+01  1.20180E+01  1.19751E+01  1.19332E+01  1.18920E+01  1.18504E+01  1.18075E+01  1.17640E+01  1.17205E+01  1.16773E+01
   1.16345E+01  1.15923E+01  1.15508E+01  1.15101E+01  1.14703E+01  1.14317E+01  1.13945E+01  1.13593E+01  1.13265E+01  1.12971E+01
   1.12727E+01  1.12553E+01  1.12508E+01  1.12877E+01  1.13822E+01  1.14627E+01  1.14200E+01  1.12148E+01  1.09022E+01  1.05758E+01
   1.02851E+01  1.00299E+01  9.87164E+00  9.90514E+00  1.01415E+01  1.04526E+01  1.06851E+01  1.07971E+01  1.08209E+01  1.07929E+01
   1.07190E+01  1.06012E+01  1.04833E+01  1.04223E+01  1.04081E+01  1.04327E+01  1.04962E+01  1.05993E+01  1.07405E+01  1.09133E+01
   1.11056E+01  1.12997E+01  1.14739E+01  1.16050E+01  1.16725E+01  1.16618E+01  1.15676E+01  1.13945E+01  1.11563E+01  1.08737E+01
   1.05700E+01  1.02680E+01  9.98611E+00  9.73696E+00  9.52675E+00  9.35603E+00  9.22125E+00  9.11649E+00  9.03508E+00  8.97067E+00
   8.91793E+00  8.87276E+00  8.83224E+00  8.79449E+00  8.75836E+00  8.72322E+00  8.68872E+00  8.65472E+00  8.62115E+00  8.58804E+00
   8.55545E+00  8.52343E+00  8.49202E+00  8.46128E+00  8.43125E+00  8.40201E+00  8.37361E+00  8.34610E+00  8.31950E+00  8.29380E+00
   8.26903E+00  8.24517E+00  8.22218E+00  8.19998E+00  8.17845E+00  8.15745E+00  8.13682E+00  8.11638E+00  8.09589E+00  8.07511E+00
   8.05377E+00  8.03161E+00  8.00840E+00  7.98392E+00  7.95796E+00  7.93034E+00  7.90095E+00  7.86974E+00  7.83671E+00  7.80193E+00
   7.76548E+00  7.72750E+00  7.68820E+00  7.64781E+00  7.60659E+00  7.56480E+00  7.52269E+00  7.48049E+00  7.43845E+00  7.39678E+00
   7.35566E+00  7.31522E+00  7.27556E+00  7.23675E+00  7.19885E+00  7.16190E+00  7.12588E+00  7.09075E+00  7.05649E+00  7.02303E+00
   6.99034E+00  6.95837E+00  6.92705E+00  6.89630E+00  6.86608E+00  6.83632E+00  6.80699E+00  6.77805E+00  6.74944E+00  6.72111E+00
   6.69302E+00  6.66518E+00  6.63754E+00  6.61008E+00  6.58277E+00  6.55558E+00  6.52850E+00  6.50152E+00  6.47464E+00  6.44781E+00
   6.42103E+00  6.39429E+00  6.36757E+00  6.34089E+00  6.31423E+00  6.28758E+00  6.26093E+00  6.23428E+00  6.20764E+00  6.18101E+00
   6.15439E+00  6.12775E+00  6.10110E+00  6.07445E+00  6.04780E+00  6.02116E+00  5.99450E+00  5.96783E+00  5.94114E+00  5.91444E+00
   5.88775E+00  5.86104E+00  5.83432E+00  5.80758E+00  5.78082E+00  5.75407E+00  5.72731E+00  5.70054E+00  5.67374E+00  5.64692E+00
   5.62010E+00  5.59328E+00  5.56644E+00  5.53959E+00  5.51272E+00  5.48583E+00  5.45894E+00  5.43205E+00  5.40515E+00  5.37823E+00
   5.35130E+00  5.32436E+00  5.29742E+00  5.27048E+00  5.24354E+00  5.21657E+00  5.18960E+00  5.16264E+00
 NY background values follow
     5.481E+01    5.450E+01    5.418E+01    5.387E+01    5.355E+01    5.323E+01    5.292E+01    5.260E+01    5.229E+01    5.197E+01
     5.166E+01    5.135E+01    5.103E+01    5.072E+01    5.040E+01    5.009E+01    4.978E+01    4.946E+01    4.915E+01    4.884E+01
     4.853E+01    4.822E+01    4.791E+01    4.760E+01    4.729E+01    4.699E+01    4.668E+01    4.637E+01    4.607E+01    4.576E+01
     4.546E+01    4.516E+01    4.486E+01    4.456E+01    4.426E+01    4.396E+01    4.366E+01    4.337E+01    4.307E+01    4.278E+01
     4.249E+01    4.220E+01    4.191E+01    4.162E+01    4.134E+01    4.105E+01    4.077E+01    4.049E+01    4.021E+01    3.993E+01
     3.965E+01    3.938E+01    3.911E+01    3.884E+01    3.857E+01    3.830E+01    3.803E+01    3.777E+01    3.750E+01    3.724E+01
     3.698E+01    3.673E+01    3.647E+01    3.622E+01    3.597E+01    3.572E+01    3.547E+01    3.522E+01    3.498E+01    3.473E+01
     3.449E+01    3.425E+01    3.402E+01    3.378E+01    3.355E+01    3.332E+01    3.309E+01    3.286E+01    3.264E+01    3.242E+01
     3.220E+01    3.198E+01    3.176E+01    3.155E+01    3.134E+01    3.113E+01    3.092E+01    3.071E+01    3.051E+01    3.031E+01
     3.011E+01    2.991E+01    2.972E+01    2.952E+01    2.933E+01    2.915E+01    2.896E+01    2.878E+01    2.860E+01    2.842E+01
     2.824E+01    2.806E+01    2.789E+01    2.772E+01    2.755E+01    2.738E+01    2.722E+01    2.705E+01    2.689E+01    2.673E+01
     2.658E+01    2.642E+01    2.627E+01    2.611E+01    2.596E+01    2.581E+01    2.567E+01    2.552E+01    2.538E+01    2.524E+01
     2.510E+01    2.496E+01    2.482E+01    2.469E+01    2.455E+01    2.442E+01    2.429E+01    2.416E+01    2.403E+01    2.391E+01
     2.378E+01    2.366E+01    2.354E+01    2.342E+01    2.330E+01    2.318E+01    2.307E+01    2.295E+01    2.284E+01    2.273E+01
     2.262E+01    2.251E+01    2.240E+01    2.229E+01    2.219E+01    2.208E+01    2.198E+01    2.187E+01    2.177E+01    2.167E+01
     2.157E+01    2.148E+01    2.138E+01    2.128E+01    2.119E+01    2.109E+01    2.100E+01    2.091E+01    2.082E+01    2.073E+01
     2.064E+01    2.055E+01    2.046E+01    2.037E+01    2.029E+01    2.020E+01    2.012E+01    2.003E+01    1.995E+01    1.987E+01
     1.979E+01    1.971E+01    1.962E+01    1.954E+01    1.947E+01    1.939E+01    1.931E+01    1.923E+01    1.915E+01    1.908E+01
     1.900E+01    1.893E+01    1.885E+01    1.877E+01    1.870E+01    1.863E+01    1.855E+01    1.848E+01    1.841E+01    1.833E+01
     1.826E+01    1.819E+01    1.812E+01    1.805E+01    1.798E+01    1.791E+01    1.784E+01    1.777E+01    1.770E+01    1.763E+01
     1.756E+01    1.750E+01    1.743E+01    1.736E+01    1.729E+01    1.723E+01    1.716E+01    1.709E+01    1.703E+01    1.696E+01
     1.690E+01    1.683E+01    1.677E+01    1.671E+01    1.664E+01    1.658E+01    1.651E+01    1.645E+01    1.639E+01    1.633E+01
     1.626E+01    1.620E+01    1.614E+01    1.608E+01    1.602E+01    1.596E+01    1.590E+01    1.583E+01    1.577E+01    1.571E+01
     1.565E+01    1.559E+01    1.554E+01    1.548E+01    1.542E+01    1.536E+01    1.530E+01    1.524E+01    1.518E+01    1.512E+01
     1.507E+01    1.501E+01    1.495E+01    1.490E+01    1.484E+01    1.478E+01    1.473E+01    1.467E+01    1.461E+01    1.456E+01
     1.450E+01    1.445E+01    1.439E+01    1.434E+01    1.428E+01    1.423E+01    1.417E+01    1.412E+01    1.407E+01    1.401E+01
     1.396E+01    1.391E+01    1.385E+01    1.380E+01    1.375E+01    1.370E+01    1.364E+01    1.359E+01    1.354E+01    1.349E+01
     1.344E+01    1.339E+01    1.334E+01    1.329E+01    1.324E+01    1.319E+01    1.314E+01    1.309E+01    1.304E+01    1.299E+01
     1.294E+01    1.289E+01    1.284E+01    1.279E+01    1.275E+01    1.270E+01    1.265E+01    1.260E+01    1.255E+01    1.251E+01
     1.246E+01    1.241E+01    1.237E+01    1.232E+01    1.227E+01    1.222E+01    1.218E+01    1.213E+01    1.208E+01    1.204E+01
     1.199E+01    1.194E+01    1.190E+01    1.185E+01    1.181E+01    1.176E+01    1.171E+01    1.167E+01    1.162E+01    1.158E+01
     1.153E+01    1.148E+01    1.144E+01    1.139E+01    1.135E+01    1.130E+01    1.125E+01    1.121E+01    1.116E+01    1.112E+01
     1.107E+01    1.103E+01    1.098E+01    1.093E+01    1.089E+01    1.084E+01    1.080E+01    1.075E+01    1.070E+01    1.066E+01
     1.061E+01    1.057E+01    1.052E+01    1.048E+01    1.043E+01    1.039E+01    1.034E+01    1.030E+01    1.025E+01    1.021E+01
     1.016E+01    1.012E+01    1.007E+01    1.003E+01    9.984E+00    9.940E+00    9.896E+00    9.852E+00    9.808E+00    9.765E+00
     9.721E+00    9.678E+00    9.635E+00    9.592E+00    9.549E+00    9.507E+00    9.464E+00    9.422E+00    9.380E+00    9.339E+00
     9.297E+00    9.256E+00    9.215E+00    9.174E+00    9.133E+00    9.093E+00    9.053E+00    9.013E+00    8.973E+00    8.933E+00
     8.894E+00    8.855E+00    8.816E+00    8.778E+00    8.739E+00    8.701E+00    8.663E+00    8.626E+00    8.588E+00    8.551E+00
     8.514E+00    8.477E+00    8.441E+00    8.404E+00    8.368E+00    8.332E+00    8.297E+00    8.261E+00    8.226E+00    8.191E+00
     8.156E+00    8.122E+00    8.088E+00    8.053E+00    8.020E+00    7.986E+00    7.953E+00    7.920E+00    7.887E+00    7.854E+00
     7.822E+00    7.789E+00    7.757E+00    7.726E+00    7.694E+00    7.663E+00    7.632E+00    7.601E+00    7.570E+00    7.540E+00
     7.510E+00    7.480E+00    7.450E+00    7.421E+00    7.391E+00    7.362E+00    7.333E+00    7.304E+00    7.276E+00    7.247E+00
     7.219E+00    7.191E+00    7.163E+00    7.135E+00    7.107E+00    7.080E+00    7.052E+00    7.025E+00    6.998E+00    6.971E+00
     6.944E+00    6.917E+00    6.890E+00    6.863E+00    6.837E+00    6.810E+00    6.784E+00    6.757E+00    6.731E+00    6.705E+00
     6.678E+00    6.652E+00    6.626E+00    6.600E+00    6.574E+00    6.548E+00    6.521E+00    6.495E+00    6.469E+00    6.443E+00
     6.417E+00    6.391E+00    6.365E+00    6.339E+00    6.313E+00    6.286E+00    6.260E+00    6.234E+00    6.208E+00    6.181E+00
     6.155E+00    6.129E+00    6.102E+00    6.076E+00    6.050E+00    6.023E+00    5.997E+00    5.970E+00    5.944E+00    5.917E+00
     5.891E+00    5.864E+00    5.837E+00    5.811E+00    5.784E+00    5.757E+00    5.731E+00    5.704E+00    5.677E+00    5.651E+00
     5.624E+00    5.597E+00    5.570E+00    5.543E+00    5.517E+00    5.490E+00    5.463E+00    5.436E+00    5.409E+00    5.382E+00
     5.355E+00    5.328E+00    5.301E+00    5.274E+00    5.247E+00    5.220E+00    5.193E+00    5.166E+00
 Ala      Conc. = 4.12E+01
