 LCModel (Version 6.3-1L) Copyright: S.W. Provencher.          Ref.: Magn. Reson. Med. 30:672-679 (1993).                
 Slice#2 Row#10 Col#9  K_02_press_1_raw_act
 36 lines in following concentration table = NCONC+1
    Conc.  %SD /Cr+PCr  Metabolite                                         
   88.011  94% 4.2E-02 Ala                                                 
    0.000 999%   0.000 Asp                                                 
 1.31E+03  12%   0.621 Cr                                                  
  795.482  20%   0.379 PCr                                                 
    0.000 999%   0.000 GABA                                                
    0.000 999%   0.000 Glc                                                 
  402.835  42%   0.192 Gln                                                 
 1.88E+03  10%   0.897 Glu                                                 
  684.049   3%   0.326 GPC                                                 
    0.000 999%   0.000 PCh                                                 
  426.522  15%   0.203 GSH                                                 
 1.35E+03  15%   0.645 Ins                                                 
  158.647  56% 7.6E-02 Lac                                                 
 2.70E+03   4%   1.287 NAA                                                 
  790.649  10%   0.376 NAAG                                                
    0.000 999%   0.000 Scyllo                                              
    0.000 999%   0.000 Tau                                                 
    0.000 999%   0.000 -CrCH2                                              
  684.049   3%   0.326 GPC+PCh                                             
 3.49E+03   3%   1.664 NAA+NAAG                                            
 2.10E+03   3%   1.000 Cr+PCr                                              
 2.29E+03  11%   1.089 Glu+Gln                                             
  157.624 282% 7.5E-02 Lip13a                                              
    0.000 999%   0.000 Lip13b                                              
    6.098 999% 2.9E-03 Lip09                                               
 1.94E+03  16%   0.921 MM09                                                
   39.758 235% 1.9E-02 Lip20                                               
 4.11E+03  12%   1.957 MM20                                                
  595.945  34%   0.284 MM12                                                
  919.280  42%   0.438 MM14                                                
 1.06E+03  29%   0.507 MM17                                                
  157.624 282% 7.5E-02 Lip13a+Lip13b                                       
 1.67E+03  33%   0.796 MM14+Lip13a+Lip13b+MM12                             
 1.94E+03  16%   0.924 MM09+Lip09                                          
 4.15E+03  12%   1.976 MM20+Lip20                                          
   6 lines in following misc. output table
  FWHM = 0.038 ppm    S/N =  18                                            
  Data shift = 0.023 ppm                                                   
  Ph:   1 deg      -0.6 deg/ppm                                            
  alphaB,S = 9.3E-01,   2.2E+01                                            
   14 spline knots.   Ns = 5(1)                                            
  ( 5) 2 infls.   ( 1) 1 extrs.                                            
  498 points on ppm-axis = NY
      4.000000     3.992357     3.984714     3.977070     3.969427     3.961784     3.954141     3.946497     3.938854     3.931211
      3.923568     3.915925     3.908281     3.900638     3.892995     3.885352     3.877708     3.870065     3.862422     3.854779
      3.847136     3.839492     3.831849     3.824206     3.816563     3.808919     3.801276     3.793633     3.785990     3.778347
      3.770703     3.763060     3.755417     3.747774     3.740130     3.732487     3.724844     3.717201     3.709558     3.701914
      3.694271     3.686628     3.678985     3.671341     3.663698     3.656055     3.648412     3.640769     3.633125     3.625482
      3.617839     3.610196     3.602552     3.594909     3.587266     3.579623     3.571980     3.564336     3.556693     3.549050
      3.541407     3.533763     3.526120     3.518477     3.510834     3.503191     3.495547     3.487904     3.480261     3.472618
      3.464974     3.457331     3.449688     3.442045     3.434402     3.426758     3.419115     3.411472     3.403829     3.396185
      3.388542     3.380899     3.373256     3.365613     3.357969     3.350326     3.342683     3.335040     3.327396     3.319753
      3.312110     3.304467     3.296824     3.289180     3.281537     3.273894     3.266251     3.258607     3.250964     3.243321
      3.235678     3.228034     3.220391     3.212748     3.205105     3.197462     3.189818     3.182175     3.174532     3.166889
      3.159245     3.151602     3.143959     3.136316     3.128673     3.121029     3.113386     3.105743     3.098100     3.090456
      3.082813     3.075170     3.067527     3.059884     3.052240     3.044597     3.036954     3.029311     3.021667     3.014024
      3.006381     2.998738     2.991095     2.983451     2.975808     2.968165     2.960522     2.952878     2.945235     2.937592
      2.929949     2.922306     2.914662     2.907019     2.899376     2.891733     2.884089     2.876446     2.868803     2.861160
      2.853517     2.845873     2.838230     2.830587     2.822944     2.815300     2.807657     2.800014     2.792371     2.784728
      2.777084     2.769441     2.761798     2.754155     2.746511     2.738868     2.731225     2.723582     2.715939     2.708295
      2.700652     2.693009     2.685366     2.677722     2.670079     2.662436     2.654793     2.647150     2.639506     2.631863
      2.624220     2.616577     2.608933     2.601290     2.593647     2.586004     2.578361     2.570717     2.563074     2.555431
      2.547788     2.540144     2.532501     2.524858     2.517215     2.509572     2.501928     2.494285     2.486642     2.478999
      2.471355     2.463712     2.456069     2.448426     2.440783     2.433139     2.425496     2.417853     2.410210     2.402566
      2.394923     2.387280     2.379637     2.371994     2.364350     2.356707     2.349064     2.341421     2.333777     2.326134
      2.318491     2.310848     2.303205     2.295561     2.287918     2.280275     2.272632     2.264988     2.257345     2.249702
      2.242059     2.234416     2.226772     2.219129     2.211486     2.203843     2.196199     2.188556     2.180913     2.173270
      2.165627     2.157983     2.150340     2.142697     2.135054     2.127410     2.119767     2.112124     2.104481     2.096838
      2.089194     2.081551     2.073908     2.066265     2.058621     2.050978     2.043335     2.035692     2.028049     2.020405
      2.012762     2.005119     1.997476     1.989833     1.982190     1.974546     1.966903     1.959260     1.951617     1.943974
      1.936331     1.928688     1.921045     1.913402     1.905759     1.898115     1.890472     1.882829     1.875186     1.867543
      1.859900     1.852257     1.844614     1.836971     1.829327     1.821684     1.814041     1.806398     1.798755     1.791112
      1.783469     1.775826     1.768183     1.760540     1.752896     1.745253     1.737610     1.729967     1.722324     1.714681
      1.707038     1.699395     1.691752     1.684108     1.676465     1.668822     1.661179     1.653536     1.645893     1.638250
      1.630607     1.622964     1.615321     1.607677     1.600034     1.592391     1.584748     1.577105     1.569462     1.561819
      1.554176     1.546533     1.538890     1.531246     1.523603     1.515960     1.508317     1.500674     1.493031     1.485388
      1.477745     1.470102     1.462458     1.454815     1.447172     1.439529     1.431886     1.424243     1.416600     1.408957
      1.401314     1.393671     1.386027     1.378384     1.370741     1.363098     1.355455     1.347812     1.340169     1.332526
      1.324883     1.317240     1.309596     1.301953     1.294310     1.286667     1.279024     1.271381     1.263738     1.256095
      1.248452     1.240808     1.233165     1.225522     1.217879     1.210236     1.202593     1.194950     1.187307     1.179664
      1.172021     1.164377     1.156734     1.149091     1.141448     1.133805     1.126162     1.118519     1.110876     1.103233
      1.095590     1.087946     1.080303     1.072660     1.065017     1.057374     1.049731     1.042088     1.034445     1.026802
      1.019158     1.011515     1.003872     0.996229     0.988586     0.980943     0.973300     0.965657     0.958014     0.950371
      0.942727     0.935084     0.927441     0.919798     0.912155     0.904512     0.896869     0.889226     0.881583     0.873940
      0.866296     0.858653     0.851010     0.843367     0.835724     0.828081     0.820438     0.812795     0.805152     0.797508
      0.789865     0.782222     0.774579     0.766936     0.759293     0.751650     0.744007     0.736364     0.728721     0.721077
      0.713434     0.705791     0.698148     0.690505     0.682862     0.675219     0.667576     0.659933     0.652290     0.644646
      0.637003     0.629360     0.621717     0.614074     0.606431     0.598788     0.591145     0.583502     0.575858     0.568215
      0.560572     0.552929     0.545286     0.537643     0.530000     0.522357     0.514714     0.507071     0.499427     0.491784
      0.484141     0.476498     0.468855     0.461212     0.453569     0.445925     0.438282     0.430639     0.422996     0.415353
      0.407710     0.400067     0.392424     0.384780     0.377137     0.369494     0.361851     0.354208     0.346565     0.338922
      0.331278     0.323635     0.315992     0.308349     0.300706     0.293063     0.285420     0.277777     0.270133     0.262490
      0.254847     0.247204     0.239561     0.231918     0.224275     0.216631     0.208988     0.201345
 NY phased data points follow
   3.47194E+00  1.20314E+00  6.84850E+00  3.45745E+00  5.95867E+00  1.65732E+01  2.52237E+01  2.91856E+01  4.38922E+01  5.48518E+01
   6.39205E+01  6.21841E+01  5.99101E+01  3.82865E+01  3.49290E+01  2.09922E+01  1.47509E+01  8.39001E+00  4.39740E+00  5.88184E+00
   2.98147E+00  5.90295E+00  6.21888E+00  6.31629E+00  1.02012E+01  9.39577E+00  1.23623E+01  9.54347E+00  1.07683E+01  1.25306E+01
   1.36996E+01  1.63664E+01  2.09007E+01  1.41935E+01  1.14625E+01  4.36520E+00  6.21380E+00  3.72042E+00  6.51971E+00  7.68522E+00
   8.56999E+00  9.47956E+00  8.97158E+00  7.50019E+00  1.17328E+01  1.51567E+01  2.46444E+01  2.56228E+01  2.35552E+01  2.01926E+01
   1.67235E+01  1.14581E+01  8.78932E+00  8.96079E+00  2.98102E+00  1.05062E+01  1.38634E+01  1.15642E+01  1.14707E+01  1.03558E+01
   6.12579E+00  8.33724E-02 -2.99827E+00 -1.36822E+00 -6.92176E+00 -8.48767E+00 -6.05626E+00 -8.11398E+00 -4.27643E+00 -5.36815E+00
  -3.80636E+00 -3.48923E+00 -1.66681E+00 -4.48986E+00 -2.04736E+00 -1.29040E+00 -3.59459E+00 -3.30085E+00 -3.49492E+00 -4.60274E+00
  -1.24209E+00 -1.59611E+00 -4.85704E+00 -2.28346E+00 -2.37399E+00 -7.04502E+00 -2.39113E+00 -3.73633E+00 -3.75076E+00 -5.29949E+00
  -1.62173E+00  1.89271E+00  1.52887E+00  7.30480E-01  1.49562E-01  6.08794E+00  4.91428E+00  3.66853E+00  1.04066E+01  1.87010E+01
   4.01627E+01  6.46128E+01  8.05558E+01  7.59846E+01  6.44912E+01  4.81936E+01  3.49861E+01  2.05780E+01  1.07147E+01  6.24041E+00
   6.91245E+00  3.14698E+00  3.18616E+00  1.04948E+00 -3.47532E+00 -1.22426E-01  9.34054E-01  2.10490E+00  2.97908E+00  9.32128E+00
   6.95219E+00  8.77089E+00  9.93492E+00  1.64832E+01  3.64891E+01  6.35949E+01  8.38792E+01  8.42224E+01  8.00766E+01  5.67163E+01
   4.66320E+01  3.32629E+01  2.18691E+01  9.15158E+00  3.29147E+00  3.59633E+00  2.18336E+00  6.91788E-01 -4.40447E+00  1.53381E+00
   1.44833E+00  2.73588E+00  1.50959E+00  4.26550E-01 -5.14530E-01 -1.53302E+00  8.53378E-01  8.31020E-01 -1.14364E+00 -5.36532E+00
  -3.64650E-01 -1.79018E+00 -1.98082E+00  1.04198E+00 -2.03331E+00 -2.35004E+00 -3.79100E+00 -3.86558E+00  2.00521E+00 -1.74508E+00
  -1.78881E+00 -2.26532E+00 -8.40213E+00 -7.86646E+00 -3.78998E+00 -8.95869E-01 -2.57469E+00 -7.39620E+00 -9.84703E+00 -9.95268E+00
  -1.19283E+01 -1.25975E+01 -1.91366E+01 -2.08076E+01 -2.59574E+01 -2.57668E+01 -1.95928E+01 -1.76767E+01 -1.85510E+01 -1.94616E+01
  -1.85552E+01 -1.85365E+01 -2.16300E+01 -1.77526E+01 -1.71755E+01 -1.91342E+01 -1.75031E+01 -9.96908E+00 -8.80336E+00 -1.85933E+00
  -4.25199E+00  9.25353E-01  3.55721E+00 -1.59417E+00  1.49514E+00 -1.70511E+00 -2.98654E+00 -1.66988E+00 -9.72409E+00 -1.03078E+01
  -4.96513E+00 -6.25381E+00  1.75414E+00 -4.03466E-02  8.63873E-01  5.10900E-01 -2.60636E+00 -5.42479E+00 -1.16354E+01 -1.01534E+01
  -1.06918E+01 -1.22936E+01 -7.26627E+00  2.14678E+00  7.80733E+00  1.35094E+01  1.34004E+01  1.34220E+01  5.09047E+00 -2.75246E+00
  -6.56117E+00 -1.57659E+01 -1.63375E+01 -5.02525E+00 -2.94629E+00  3.52667E+00  6.28204E+00  6.00314E+00  8.72864E+00  1.32539E+01
   8.99774E+00  1.43986E+00  7.05318E+00  3.03026E+00  4.99035E+00  1.52871E+00  4.98660E+00  2.53896E+00  5.88034E+00  4.49402E+00
  -4.10547E-01 -3.11209E+00 -1.87348E+00  1.89565E+00  7.44432E+00  1.00747E+01  1.43346E+01  1.88377E+01  1.88006E+01  1.45796E+01
   2.02525E+01  2.36616E+01  3.14047E+01  4.88770E+01  5.08727E+01  5.07562E+01  4.96375E+01  7.03302E+01  1.00338E+02  1.38984E+02
   1.42693E+02  1.21681E+02  9.44100E+01  6.37221E+01  3.90928E+01  2.23199E+01  1.75560E+01  1.26802E+01  8.11748E+00  6.01831E+00
   5.38206E+00  1.16475E+01  2.58419E+00  7.15213E+00  4.98654E+00  6.25318E+00  3.87077E+00  7.38942E+00  3.91698E+00  5.35928E+00
  -9.11872E-01  3.91798E+00  1.63372E+00 -1.83116E+00  1.87890E+00 -9.14857E-01 -4.16545E-03 -1.86742E+00  3.26066E+00  2.13876E+00
  -2.91701E-02 -1.13898E+00  6.10421E+00  1.04036E+00 -4.70487E-01  1.24833E+00 -3.80651E-01 -4.31372E-01  2.20164E-01  4.90122E+00
  -1.35820E+00  1.65757E+00  3.22664E+00  3.73492E+00  3.89094E-01  6.96115E+00  1.88362E+00  2.73878E+00  6.30106E+00  1.06973E+01
   2.80225E+00  4.16678E+00  1.02979E+01  9.32496E+00  7.25714E+00  6.45886E+00  2.69200E+00  5.93405E+00  4.95301E+00  6.05322E+00
   2.98991E+00 -8.56564E-01 -2.05776E+00 -7.58021E-01  3.16308E+00  3.54141E+00 -5.18919E-01 -1.34345E+00  5.04164E+00 -4.96649E-01
  -2.73665E-01 -3.86565E+00 -2.87826E-02  1.50021E+00  5.21515E+00  5.86697E+00  3.12631E+00  2.87745E+00  3.14113E+00  4.39484E+00
   1.71169E+00  1.25565E+00  4.95012E+00  3.05345E+00  7.39404E+00  5.52852E+00  6.21353E+00  5.13932E-01  2.05549E+00  3.76541E+00
  -2.20745E+00  2.20389E-01 -8.81572E-01 -1.70434E+00  5.31312E+00  2.15907E+00  1.11398E+00  1.59269E+00  2.09430E+00  2.75915E+00
   3.73189E+00  1.86618E+00  3.90721E+00  2.35568E+00  1.02379E+00  1.26817E+00  3.53663E+00  1.08359E+00 -1.25221E+00  6.90766E-02
   2.22818E-01  1.51509E+00 -3.55158E-01  2.51097E+00  8.18704E-01 -4.40381E-01  3.24429E+00  3.50021E+00  4.34064E+00 -1.34571E+00
   2.41042E+00  5.14005E-01  8.05956E-01 -1.06385E+00  2.49978E+00  4.04334E+00  2.53166E+00 -2.54743E+00  1.49079E+00  1.35504E+00
   7.40530E+00  4.03523E+00  8.80170E+00  5.81742E+00  7.10212E+00  5.57319E+00  8.65421E+00  7.31069E+00  4.26714E+00  5.23320E+00
   5.30604E+00  9.54831E+00  7.51356E+00  1.18271E+01  1.04602E+01  1.13533E+01  8.89283E+00  1.14026E+01  1.44131E+01  1.04010E+01
   8.02560E+00  8.34376E+00  7.96802E+00  7.23867E+00  8.52090E+00  5.83583E+00  2.51921E+00  3.10134E+00  4.43798E+00  4.50861E+00
  -1.88820E-01 -1.10451E-01  7.13538E+00  1.13369E+00 -1.22859E+00  9.16807E-01 -2.79478E+00 -1.39633E+00 -1.36124E+00 -2.67670E+00
   2.89066E+00 -5.83918E-01  1.29445E+00 -4.00563E+00  1.32716E+00  1.02968E+00 -4.69468E+00 -5.87044E-01 -2.83232E+00 -2.72677E+00
  -3.55931E+00 -8.29761E-01  5.24899E-02 -3.87628E+00 -3.92516E+00 -4.14644E+00  1.29768E+00 -1.54352E+00  3.19413E-01  1.19271E+00
  -2.16887E+00 -6.62737E+00 -3.88774E+00 -4.48875E+00 -5.20426E+00 -4.22929E-01  8.62531E-01 -2.69138E+00 -5.31575E+00 -7.04296E-02
   1.91926E+00 -1.57933E+00 -2.98528E+00 -3.37732E-01  5.19778E-01  1.59963E+00 -1.63111E+00 -5.97414E+00 -3.40221E+00  4.62207E-01
  -1.96883E+00 -7.46678E-01 -5.12682E+00 -6.92632E-01 -5.13097E+00 -2.76132E+00 -5.52986E+00 -2.83075E+00 -1.13477E+00 -7.87005E-01
  -1.62935E+00  3.51115E-01 -4.69419E-01 -5.00688E+00 -4.86487E-01 -8.88966E-01 -6.46281E+00 -2.12999E-01 -2.16950E+00 -1.52277E+00
  -3.81429E+00 -4.03942E+00 -4.08459E+00 -4.64290E+00  5.28452E-01 -4.49698E+00 -2.47426E+00 -6.43369E+00
 NY points of the fit to the data follow
   5.81021E+00  5.66412E+00  5.93998E+00  6.77243E+00  8.69681E+00  1.25562E+01  1.94907E+01  3.02134E+01  4.23871E+01  5.35616E+01
   6.10470E+01  6.02382E+01  5.21226E+01  4.12566E+01  3.13803E+01  2.32742E+01  1.71442E+01  1.33399E+01  1.07207E+01  9.28014E+00
   8.52710E+00  7.92680E+00  7.40507E+00  6.98013E+00  6.55951E+00  6.20304E+00  6.25631E+00  8.16331E+00  1.19644E+01  1.51876E+01
   1.71246E+01  1.82343E+01  1.83676E+01  1.67849E+01  1.36786E+01  1.03536E+01  7.26775E+00  5.03587E+00  4.02284E+00  4.04243E+00
   4.78886E+00  5.84322E+00  6.92675E+00  8.31998E+00  1.09684E+01  1.48884E+01  1.81370E+01  1.87412E+01  1.67346E+01  1.33031E+01
   9.63637E+00  6.48628E+00  4.24406E+00  2.97844E+00  2.48439E+00  2.56108E+00  3.12174E+00  4.30322E+00  5.74913E+00  6.69855E+00
   6.68466E+00  5.62717E+00  3.95815E+00  2.23543E+00  9.91175E-01  4.69624E-01  5.69582E-01  1.09862E+00  1.77961E+00  2.55366E+00
   3.33051E+00  3.70739E+00  3.54368E+00  3.02212E+00  2.42095E+00  1.88244E+00  1.44327E+00  1.15233E+00  9.28265E-01  7.54273E-01
   6.01871E-01  4.33072E-01  1.70861E-01 -3.31321E-01 -1.29957E+00 -2.76944E+00 -4.30367E+00 -5.34471E+00 -5.54857E+00 -5.00089E+00
  -3.95833E+00 -2.66418E+00 -1.34190E+00 -2.10737E-01  5.73855E-01  9.24977E-01  9.91843E-01  1.90116E+00  6.54617E+00  1.83319E+01
   3.96706E+01  6.58698E+01  8.16543E+01  7.93003E+01  6.53551E+01  4.82059E+01  3.20610E+01  1.89030E+01  1.02808E+01  4.82886E+00
   1.74386E+00  6.79969E-01  2.81603E-01  1.11019E-01  4.46766E-02  3.87037E-02  6.10340E-02  9.54789E-02  1.84909E-01  4.58081E-01
   1.08992E+00  2.54797E+00  6.73557E+00  1.70577E+01  3.66507E+01  6.44385E+01  8.70016E+01  9.05227E+01  7.84511E+01  6.06378E+01
   4.33684E+01  2.86357E+01  1.77764E+01  9.97814E+00  3.93334E+00  5.51413E-01 -1.08222E+00 -1.44878E+00 -8.42845E-01  2.18170E-01
   1.12931E+00  1.48382E+00  1.27182E+00  6.90252E-01 -7.31570E-04 -6.74014E-01 -1.23562E+00 -1.67277E+00 -2.11246E+00 -2.59662E+00
  -3.18013E+00 -3.85986E+00 -4.44910E+00 -4.66927E+00 -4.47776E+00 -4.05991E+00 -3.79077E+00 -4.09897E+00 -5.20724E+00 -6.94960E+00
  -8.33238E+00 -8.49243E+00 -7.57539E+00 -6.34518E+00 -5.97521E+00 -6.80875E+00 -8.19510E+00 -9.42433E+00 -1.00753E+01 -1.02523E+01
  -1.02523E+01 -1.05413E+01 -1.14173E+01 -1.26615E+01 -1.38877E+01 -1.42674E+01 -1.33489E+01 -1.21887E+01 -1.17897E+01 -1.23293E+01
  -1.27922E+01 -1.23386E+01 -1.15805E+01 -1.11913E+01 -1.13367E+01 -1.13945E+01 -1.03505E+01 -7.78209E+00 -4.61345E+00 -2.01502E+00
  -6.47769E-01 -6.56158E-01 -1.68540E+00 -3.05113E+00 -4.22809E+00 -5.14333E+00 -5.66467E+00 -5.57710E+00 -4.95276E+00 -3.92033E+00
  -2.54964E+00 -7.44973E-01  1.29258E+00  2.51046E+00  2.29815E+00  4.57688E-01 -2.53655E+00 -5.89851E+00 -9.15862E+00 -1.12383E+01
  -1.17416E+01 -1.06374E+01 -7.26985E+00 -1.48960E+00  5.19249E+00  9.46012E+00  9.36244E+00  5.94932E+00  5.25609E-01 -5.94046E+00
  -1.25338E+01 -1.70360E+01 -1.70243E+01 -1.28669E+01 -6.97427E+00 -1.51028E+00  2.76252E+00  5.33076E+00  5.96134E+00  5.18931E+00
   4.06219E+00  3.59092E+00  4.12113E+00  5.19712E+00  6.40792E+00  7.75120E+00  8.69030E+00  8.55776E+00  7.36638E+00  5.62311E+00
   4.03691E+00  3.16505E+00  3.81925E+00  6.07384E+00  8.94677E+00  1.13653E+01  1.30132E+01  1.39102E+01  1.39718E+01  1.39263E+01
   1.56074E+01  2.08760E+01  3.07570E+01  4.28734E+01  5.03093E+01  5.18552E+01  5.59805E+01  7.18861E+01  1.04335E+02  1.36389E+02
   1.41405E+02  1.22123E+02  9.41290E+01  6.75436E+01  4.41282E+01  2.72220E+01  1.73395E+01  1.03002E+01  7.36090E+00  6.15733E+00
   5.38228E+00  4.89944E+00  4.73447E+00  4.56618E+00  4.16142E+00  3.62032E+00  3.08558E+00  2.57250E+00  2.08286E+00  1.67243E+00
   1.41416E+00  1.26354E+00  1.12411E+00  9.57422E-01  7.61694E-01  5.42345E-01  3.07721E-01  1.06656E-01  1.32342E-02  7.95408E-02
   2.65060E-01  4.84098E-01  7.01848E-01  9.10716E-01  1.10125E+00  1.26975E+00  1.44109E+00  1.66205E+00  1.96324E+00  2.32864E+00
   2.72982E+00  3.14512E+00  3.55200E+00  3.92518E+00  4.25563E+00  4.53627E+00  4.76214E+00  4.93261E+00  5.04391E+00  5.09396E+00
   5.08223E+00  5.01165E+00  4.88813E+00  4.71920E+00  4.51322E+00  4.28004E+00  4.03180E+00  3.78164E+00  3.54224E+00  3.32624E+00
   3.14842E+00  3.03338E+00  3.02298E+00  3.12439E+00  3.27877E+00  3.27455E+00  2.84684E+00  2.11739E+00  1.42305E+00  9.10898E-01
   5.89225E-01  5.00669E-01  7.76714E-01  1.48630E+00  2.38992E+00  3.08776E+00  3.45143E+00  3.57648E+00  3.56517E+00  3.48245E+00
   3.42432E+00  3.44465E+00  3.60440E+00  3.95589E+00  4.39848E+00  4.58603E+00  3.97971E+00  2.64862E+00  1.22932E+00  8.12478E-02
  -6.99763E-01 -1.01448E+00 -5.90795E-01  5.99109E-01  1.95587E+00  2.87987E+00  3.23933E+00  3.23183E+00  3.01198E+00  2.68648E+00
   2.39433E+00  2.13902E+00  1.92907E+00  1.78593E+00  1.67296E+00  1.57217E+00  1.47635E+00  1.38260E+00  1.28976E+00  1.19738E+00
   1.10585E+00  1.01673E+00  9.32687E-01  8.56793E-01  7.91870E-01  7.40485E-01  7.05496E-01  6.90441E-01  6.99274E-01  7.35685E-01
   8.02736E-01  9.03175E-01  1.04000E+00  1.21659E+00  1.43613E+00  1.70099E+00  2.01247E+00  2.37122E+00  2.77753E+00  3.23099E+00
   3.72977E+00  4.26999E+00  4.84583E+00  5.44998E+00  6.07393E+00  6.70765E+00  7.33920E+00  7.95489E+00  8.54014E+00  9.08045E+00
   9.56197E+00  9.97162E+00  1.02973E+01  1.05285E+01  1.06575E+01  1.06801E+01  1.05952E+01  1.04049E+01  1.01138E+01  9.72931E+00
   9.26160E+00  8.72322E+00  8.12807E+00  7.49035E+00  6.82395E+00  6.14237E+00  5.45862E+00  4.78462E+00  4.13048E+00  3.50401E+00
   2.91102E+00  2.35581E+00  1.84148E+00  1.36974E+00  9.40663E-01  5.52890E-01  2.04290E-01 -1.07408E-01 -3.84508E-01 -6.29632E-01
  -8.45904E-01 -1.03665E+00 -1.20484E+00 -1.35285E+00 -1.48268E+00 -1.59640E+00 -1.69628E+00 -1.78439E+00 -1.86226E+00 -1.93086E+00
  -1.99102E+00 -2.04386E+00 -2.09062E+00 -2.13232E+00 -2.16942E+00 -2.20212E+00 -2.23077E+00 -2.25608E+00 -2.27879E+00 -2.29930E+00
  -2.31761E+00 -2.33364E+00 -2.34766E+00 -2.36023E+00 -2.37179E+00 -2.38235E+00 -2.39166E+00 -2.39966E+00 -2.40666E+00 -2.41313E+00
  -2.41924E+00 -2.42480E+00 -2.42953E+00 -2.43346E+00 -2.43698E+00 -2.44042E+00 -2.44376E+00 -2.44670E+00 -2.44903E+00 -2.45094E+00
  -2.45281E+00 -2.45483E+00 -2.45679E+00 -2.45835E+00 -2.45946E+00 -2.46043E+00 -2.46158E+00 -2.46294E+00 -2.46417E+00 -2.46502E+00
  -2.46559E+00 -2.46624E+00 -2.46719E+00 -2.46826E+00 -2.46909E+00 -2.46956E+00 -2.46992E+00 -2.47050E+00 -2.47136E+00 -2.47219E+00
  -2.47268E+00 -2.47286E+00 -2.47307E+00 -2.47355E+00 -2.47418E+00 -2.47456E+00 -2.47450E+00 -2.47418E+00
 NY background values follow
     2.774E+00    2.718E+00    2.662E+00    2.606E+00    2.549E+00    2.493E+00    2.436E+00    2.379E+00    2.322E+00    2.265E+00
     2.207E+00    2.150E+00    2.092E+00    2.034E+00    1.977E+00    1.919E+00    1.860E+00    1.802E+00    1.744E+00    1.685E+00
     1.627E+00    1.568E+00    1.509E+00    1.450E+00    1.391E+00    1.332E+00    1.273E+00    1.214E+00    1.154E+00    1.095E+00
     1.035E+00    9.756E-01    9.159E-01    8.562E-01    7.963E-01    7.365E-01    6.765E-01    6.165E-01    5.565E-01    4.964E-01
     4.363E-01    3.761E-01    3.159E-01    2.557E-01    1.954E-01    1.351E-01    7.479E-02    1.446E-02   -4.585E-02   -1.061E-01
    -1.663E-01   -2.264E-01   -2.864E-01   -3.463E-01   -4.060E-01   -4.656E-01   -5.249E-01   -5.840E-01   -6.429E-01   -7.015E-01
    -7.598E-01   -8.178E-01   -8.754E-01   -9.327E-01   -9.896E-01   -1.046E+00   -1.102E+00   -1.158E+00   -1.213E+00   -1.268E+00
    -1.322E+00   -1.375E+00   -1.428E+00   -1.481E+00   -1.533E+00   -1.584E+00   -1.634E+00   -1.684E+00   -1.733E+00   -1.782E+00
    -1.829E+00   -1.876E+00   -1.922E+00   -1.967E+00   -2.012E+00   -2.055E+00   -2.098E+00   -2.140E+00   -2.181E+00   -2.220E+00
    -2.259E+00   -2.297E+00   -2.334E+00   -2.370E+00   -2.405E+00   -2.440E+00   -2.474E+00   -2.507E+00   -2.539E+00   -2.571E+00
    -2.603E+00   -2.634E+00   -2.666E+00   -2.696E+00   -2.727E+00   -2.758E+00   -2.789E+00   -2.819E+00   -2.850E+00   -2.881E+00
    -2.913E+00   -2.945E+00   -2.977E+00   -3.010E+00   -3.043E+00   -3.077E+00   -3.111E+00   -3.147E+00   -3.183E+00   -3.220E+00
    -3.258E+00   -3.298E+00   -3.338E+00   -3.379E+00   -3.422E+00   -3.466E+00   -3.512E+00   -3.559E+00   -3.607E+00   -3.657E+00
    -3.709E+00   -3.763E+00   -3.818E+00   -3.876E+00   -3.935E+00   -3.996E+00   -4.059E+00   -4.125E+00   -4.192E+00   -4.261E+00
    -4.332E+00   -4.405E+00   -4.478E+00   -4.554E+00   -4.630E+00   -4.707E+00   -4.786E+00   -4.865E+00   -4.944E+00   -5.024E+00
    -5.105E+00   -5.186E+00   -5.266E+00   -5.347E+00   -5.428E+00   -5.508E+00   -5.588E+00   -5.668E+00   -5.747E+00   -5.825E+00
    -5.902E+00   -5.978E+00   -6.053E+00   -6.126E+00   -6.198E+00   -6.269E+00   -6.337E+00   -6.404E+00   -6.469E+00   -6.532E+00
    -6.593E+00   -6.651E+00   -6.706E+00   -6.759E+00   -6.810E+00   -6.857E+00   -6.901E+00   -6.943E+00   -6.980E+00   -7.015E+00
    -7.046E+00   -7.073E+00   -7.097E+00   -7.116E+00   -7.133E+00   -7.145E+00   -7.155E+00   -7.161E+00   -7.164E+00   -7.164E+00
    -7.161E+00   -7.155E+00   -7.146E+00   -7.135E+00   -7.120E+00   -7.104E+00   -7.085E+00   -7.063E+00   -7.040E+00   -7.014E+00
    -6.986E+00   -6.956E+00   -6.925E+00   -6.891E+00   -6.856E+00   -6.820E+00   -6.782E+00   -6.742E+00   -6.702E+00   -6.660E+00
    -6.617E+00   -6.573E+00   -6.528E+00   -6.482E+00   -6.436E+00   -6.389E+00   -6.341E+00   -6.293E+00   -6.245E+00   -6.196E+00
    -6.148E+00   -6.099E+00   -6.050E+00   -6.002E+00   -5.953E+00   -5.905E+00   -5.858E+00   -5.811E+00   -5.764E+00   -5.718E+00
    -5.673E+00   -5.628E+00   -5.583E+00   -5.539E+00   -5.496E+00   -5.453E+00   -5.411E+00   -5.369E+00   -5.328E+00   -5.287E+00
    -5.247E+00   -5.207E+00   -5.168E+00   -5.130E+00   -5.092E+00   -5.054E+00   -5.017E+00   -4.981E+00   -4.945E+00   -4.910E+00
    -4.875E+00   -4.841E+00   -4.807E+00   -4.774E+00   -4.742E+00   -4.710E+00   -4.679E+00   -4.648E+00   -4.618E+00   -4.588E+00
    -4.559E+00   -4.531E+00   -4.503E+00   -4.476E+00   -4.449E+00   -4.423E+00   -4.397E+00   -4.372E+00   -4.348E+00   -4.324E+00
    -4.301E+00   -4.278E+00   -4.257E+00   -4.235E+00   -4.214E+00   -4.194E+00   -4.175E+00   -4.155E+00   -4.137E+00   -4.119E+00
    -4.101E+00   -4.085E+00   -4.068E+00   -4.052E+00   -4.037E+00   -4.022E+00   -4.008E+00   -3.994E+00   -3.980E+00   -3.968E+00
    -3.955E+00   -3.943E+00   -3.932E+00   -3.920E+00   -3.910E+00   -3.900E+00   -3.890E+00   -3.880E+00   -3.871E+00   -3.863E+00
    -3.855E+00   -3.847E+00   -3.839E+00   -3.832E+00   -3.825E+00   -3.819E+00   -3.813E+00   -3.807E+00   -3.802E+00   -3.797E+00
    -3.792E+00   -3.788E+00   -3.784E+00   -3.780E+00   -3.777E+00   -3.773E+00   -3.771E+00   -3.768E+00   -3.765E+00   -3.763E+00
    -3.761E+00   -3.760E+00   -3.758E+00   -3.757E+00   -3.756E+00   -3.755E+00   -3.755E+00   -3.754E+00   -3.754E+00   -3.754E+00
    -3.754E+00   -3.755E+00   -3.755E+00   -3.756E+00   -3.757E+00   -3.758E+00   -3.759E+00   -3.760E+00   -3.761E+00   -3.763E+00
    -3.764E+00   -3.766E+00   -3.768E+00   -3.770E+00   -3.772E+00   -3.774E+00   -3.776E+00   -3.778E+00   -3.780E+00   -3.782E+00
    -3.785E+00   -3.787E+00   -3.789E+00   -3.792E+00   -3.794E+00   -3.797E+00   -3.799E+00   -3.802E+00   -3.804E+00   -3.806E+00
    -3.809E+00   -3.811E+00   -3.813E+00   -3.816E+00   -3.818E+00   -3.820E+00   -3.822E+00   -3.824E+00   -3.826E+00   -3.828E+00
    -3.829E+00   -3.831E+00   -3.832E+00   -3.833E+00   -3.834E+00   -3.835E+00   -3.835E+00   -3.836E+00   -3.836E+00   -3.836E+00
    -3.835E+00   -3.835E+00   -3.834E+00   -3.833E+00   -3.831E+00   -3.830E+00   -3.828E+00   -3.825E+00   -3.823E+00   -3.819E+00
    -3.816E+00   -3.812E+00   -3.808E+00   -3.803E+00   -3.798E+00   -3.793E+00   -3.787E+00   -3.781E+00   -3.774E+00   -3.767E+00
    -3.759E+00   -3.751E+00   -3.742E+00   -3.733E+00   -3.723E+00   -3.713E+00   -3.702E+00   -3.691E+00   -3.679E+00   -3.666E+00
    -3.653E+00   -3.640E+00   -3.626E+00   -3.611E+00   -3.596E+00   -3.581E+00   -3.565E+00   -3.549E+00   -3.533E+00   -3.516E+00
    -3.499E+00   -3.482E+00   -3.464E+00   -3.446E+00   -3.428E+00   -3.410E+00   -3.392E+00   -3.373E+00   -3.355E+00   -3.336E+00
    -3.317E+00   -3.298E+00   -3.279E+00   -3.260E+00   -3.241E+00   -3.222E+00   -3.203E+00   -3.184E+00   -3.166E+00   -3.147E+00
    -3.128E+00   -3.110E+00   -3.092E+00   -3.074E+00   -3.056E+00   -3.038E+00   -3.021E+00   -3.004E+00   -2.987E+00   -2.971E+00
    -2.955E+00   -2.939E+00   -2.924E+00   -2.909E+00   -2.894E+00   -2.880E+00   -2.866E+00   -2.853E+00   -2.840E+00   -2.827E+00
    -2.815E+00   -2.803E+00   -2.792E+00   -2.780E+00   -2.770E+00   -2.759E+00   -2.749E+00   -2.739E+00   -2.729E+00   -2.720E+00
    -2.711E+00   -2.703E+00   -2.694E+00   -2.686E+00   -2.679E+00   -2.671E+00   -2.664E+00   -2.657E+00   -2.650E+00   -2.644E+00
    -2.638E+00   -2.632E+00   -2.626E+00   -2.621E+00   -2.616E+00   -2.611E+00   -2.606E+00   -2.602E+00   -2.597E+00   -2.593E+00
    -2.589E+00   -2.586E+00   -2.582E+00   -2.579E+00   -2.576E+00   -2.573E+00   -2.570E+00   -2.567E+00
 Ala      Conc. = 8.80E+01
