 LCModel (Version 6.3-1L) Copyright: S.W. Provencher.          Ref.: Magn. Reson. Med. 30:672-679 (1993).                
 Slice#1 Row#8 Col#11  K_02_press_1_raw_act
 36 lines in following concentration table = NCONC+1
    Conc.  %SD /Cr+PCr  Metabolite                                         
  156.488  72%   0.192 Ala                                                 
    0.000 999%   0.000 Asp                                                 
    0.000 999%   0.000 Cr                                                  
  813.200   7%   1.000 PCr                                                 
    0.000 999%   0.000 GABA                                                
  155.794  86%   0.192 Glc                                                 
  453.125  48%   0.557 Gln                                                 
 1.29E+03  19%   1.588 Glu                                                 
  327.848   7%   0.403 GPC                                                 
    0.000 999%   0.000 PCh                                                 
  261.816  29%   0.322 GSH                                                 
  638.094  39%   0.785 Ins                                                 
  113.483 104%   0.140 Lac                                                 
 2.51E+03   6%   3.090 NAA                                                 
  357.853  45%   0.440 NAAG                                                
   74.878  36% 9.2E-02 Scyllo                                              
  157.204 121%   0.193 Tau                                                 
  528.345  19%   0.650 -CrCH2                                              
  327.848   7%   0.403 GPC+PCh                                             
 2.87E+03   3%   3.530 NAA+NAAG                                            
  813.200   7%   1.000 Cr+PCr                                              
 1.74E+03  20%   2.145 Glu+Gln                                             
  225.473 247%   0.277 Lip13a                                              
    0.000 999%   0.000 Lip13b                                              
   28.798 553% 3.5E-02 Lip09                                               
 1.83E+03  15%   2.248 MM09                                                
   37.854 243% 4.7E-02 Lip20                                               
 3.91E+03  11%   4.808 MM20                                                
  597.295  30%   0.734 MM12                                                
 3.89E+03  14%   4.780+MM14                                                
 1.51E+03  22%   1.861 MM17                                                
  225.473 247%   0.277 Lip13a+Lip13b                                       
 4.71E+03  10%   5.791 MM14+Lip13a+Lip13b+MM12                             
 1.86E+03  13%   2.283 MM09+Lip09                                          
 3.95E+03  11%   4.855 MM20+Lip20                                          
   6 lines in following misc. output table
  FWHM = 0.046 ppm    S/N =  14                                            
  Data shift = 0.000 ppm                                                   
  Ph: -47 deg     -12.7 deg/ppm                                            
  alphaB,S = 6.7E-01,   1.1E+02                                            
   14 spline knots.   Ns = 7(1)                                            
  ( 6) 3 infls.   ( 3) 1 extrs.                                            
  498 points on ppm-axis = NY
      4.000000     3.992357     3.984714     3.977070     3.969427     3.961784     3.954141     3.946497     3.938854     3.931211
      3.923568     3.915925     3.908281     3.900638     3.892995     3.885352     3.877708     3.870065     3.862422     3.854779
      3.847136     3.839492     3.831849     3.824206     3.816563     3.808919     3.801276     3.793633     3.785990     3.778347
      3.770703     3.763060     3.755417     3.747774     3.740130     3.732487     3.724844     3.717201     3.709558     3.701914
      3.694271     3.686628     3.678985     3.671341     3.663698     3.656055     3.648412     3.640769     3.633125     3.625482
      3.617839     3.610196     3.602552     3.594909     3.587266     3.579623     3.571980     3.564336     3.556693     3.549050
      3.541407     3.533763     3.526120     3.518477     3.510834     3.503191     3.495547     3.487904     3.480261     3.472618
      3.464974     3.457331     3.449688     3.442045     3.434402     3.426758     3.419115     3.411472     3.403829     3.396185
      3.388542     3.380899     3.373256     3.365613     3.357969     3.350326     3.342683     3.335040     3.327396     3.319753
      3.312110     3.304467     3.296824     3.289180     3.281537     3.273894     3.266251     3.258607     3.250964     3.243321
      3.235678     3.228034     3.220391     3.212748     3.205105     3.197462     3.189818     3.182175     3.174532     3.166889
      3.159245     3.151602     3.143959     3.136316     3.128673     3.121029     3.113386     3.105743     3.098100     3.090456
      3.082813     3.075170     3.067527     3.059884     3.052240     3.044597     3.036954     3.029311     3.021667     3.014024
      3.006381     2.998738     2.991095     2.983451     2.975808     2.968165     2.960522     2.952878     2.945235     2.937592
      2.929949     2.922306     2.914662     2.907019     2.899376     2.891733     2.884089     2.876446     2.868803     2.861160
      2.853517     2.845873     2.838230     2.830587     2.822944     2.815300     2.807657     2.800014     2.792371     2.784728
      2.777084     2.769441     2.761798     2.754155     2.746511     2.738868     2.731225     2.723582     2.715939     2.708295
      2.700652     2.693009     2.685366     2.677722     2.670079     2.662436     2.654793     2.647150     2.639506     2.631863
      2.624220     2.616577     2.608933     2.601290     2.593647     2.586004     2.578361     2.570717     2.563074     2.555431
      2.547788     2.540144     2.532501     2.524858     2.517215     2.509572     2.501928     2.494285     2.486642     2.478999
      2.471355     2.463712     2.456069     2.448426     2.440783     2.433139     2.425496     2.417853     2.410210     2.402566
      2.394923     2.387280     2.379637     2.371994     2.364350     2.356707     2.349064     2.341421     2.333777     2.326134
      2.318491     2.310848     2.303205     2.295561     2.287918     2.280275     2.272632     2.264988     2.257345     2.249702
      2.242059     2.234416     2.226772     2.219129     2.211486     2.203843     2.196199     2.188556     2.180913     2.173270
      2.165627     2.157983     2.150340     2.142697     2.135054     2.127410     2.119767     2.112124     2.104481     2.096838
      2.089194     2.081551     2.073908     2.066265     2.058621     2.050978     2.043335     2.035692     2.028049     2.020405
      2.012762     2.005119     1.997476     1.989833     1.982190     1.974546     1.966903     1.959260     1.951617     1.943974
      1.936331     1.928688     1.921045     1.913402     1.905759     1.898115     1.890472     1.882829     1.875186     1.867543
      1.859900     1.852257     1.844614     1.836971     1.829327     1.821684     1.814041     1.806398     1.798755     1.791112
      1.783469     1.775826     1.768183     1.760540     1.752896     1.745253     1.737610     1.729967     1.722324     1.714681
      1.707038     1.699395     1.691752     1.684108     1.676465     1.668822     1.661179     1.653536     1.645893     1.638250
      1.630607     1.622964     1.615321     1.607677     1.600034     1.592391     1.584748     1.577105     1.569462     1.561819
      1.554176     1.546533     1.538890     1.531246     1.523603     1.515960     1.508317     1.500674     1.493031     1.485388
      1.477745     1.470102     1.462458     1.454815     1.447172     1.439529     1.431886     1.424243     1.416600     1.408957
      1.401314     1.393671     1.386027     1.378384     1.370741     1.363098     1.355455     1.347812     1.340169     1.332526
      1.324883     1.317240     1.309596     1.301953     1.294310     1.286667     1.279024     1.271381     1.263738     1.256095
      1.248452     1.240808     1.233165     1.225522     1.217879     1.210236     1.202593     1.194950     1.187307     1.179664
      1.172021     1.164377     1.156734     1.149091     1.141448     1.133805     1.126162     1.118519     1.110876     1.103233
      1.095590     1.087946     1.080303     1.072660     1.065017     1.057374     1.049731     1.042088     1.034445     1.026802
      1.019158     1.011515     1.003872     0.996229     0.988586     0.980943     0.973300     0.965657     0.958014     0.950371
      0.942727     0.935084     0.927441     0.919798     0.912155     0.904512     0.896869     0.889226     0.881583     0.873940
      0.866296     0.858653     0.851010     0.843367     0.835724     0.828081     0.820438     0.812795     0.805152     0.797508
      0.789865     0.782222     0.774579     0.766936     0.759293     0.751650     0.744007     0.736364     0.728721     0.721077
      0.713434     0.705791     0.698148     0.690505     0.682862     0.675219     0.667576     0.659933     0.652290     0.644646
      0.637003     0.629360     0.621717     0.614074     0.606431     0.598788     0.591145     0.583502     0.575858     0.568215
      0.560572     0.552929     0.545286     0.537643     0.530000     0.522357     0.514714     0.507071     0.499427     0.491784
      0.484141     0.476498     0.468855     0.461212     0.453569     0.445925     0.438282     0.430639     0.422996     0.415353
      0.407710     0.400067     0.392424     0.384780     0.377137     0.369494     0.361851     0.354208     0.346565     0.338922
      0.331278     0.323635     0.315992     0.308349     0.300706     0.293063     0.285420     0.277777     0.270133     0.262490
      0.254847     0.247204     0.239561     0.231918     0.224275     0.216631     0.208988     0.201345
 NY phased data points follow
   1.32557E+01  1.10755E+01  1.04717E+01  8.95132E+00  8.13979E+00  1.09002E+01  1.33921E+01  1.25622E+01  1.56292E+01  1.86811E+01
   1.48987E+01  1.12251E+01  1.10540E+01  7.92327E+00  1.00284E+01  9.70855E+00 -3.11473E+00  9.54908E+00  7.70623E+00  5.37677E+00
   1.01268E+01  1.02402E+01  1.28384E+01  1.05928E+01  1.64101E+01  1.32549E+01  1.48601E+01  7.98885E+00  1.20266E+01  1.22215E+01
   1.36123E+01  1.04890E+01  1.17410E+01  9.63116E+00  9.37270E+00  8.01397E+00  7.70925E+00  9.76872E+00  8.55964E+00  7.27098E+00
   1.00873E+01  6.17327E+00  1.01321E+01  9.31454E+00  1.53082E+01  1.45101E+01  1.16581E+01  1.39858E+01  1.78608E+01  1.04571E+01
   9.22016E+00  1.05166E+01  1.07323E+01  7.91970E+00  9.62507E+00  8.77358E+00  1.01322E+01  1.06200E+01  8.18601E+00  9.89383E+00
   8.12691E+00  8.18582E+00  1.68063E+00  7.05356E+00  7.04743E+00  6.36854E+00  3.06317E+00  6.80520E+00  4.49197E+00  2.70198E+00
   8.05624E+00  7.56854E+00  6.36382E+00  1.04775E+01  5.55594E+00  6.68039E+00  5.28892E+00  5.60568E+00  8.24154E+00  7.77801E+00
   7.60425E+00  1.05335E+01  9.61305E+00  5.59044E+00  1.00792E+01  8.34787E+00  3.53357E+00  5.58653E+00  9.75181E+00  1.10708E+01
   1.06214E+01  8.39049E+00  1.15564E+01  1.20613E+01  1.09317E+01  1.23257E+01  1.29910E+01  9.26816E+00  1.11048E+01  1.81921E+01
   2.19324E+01  3.48106E+01  4.25080E+01  4.14871E+01  3.59025E+01  2.94079E+01  1.55721E+01  1.70152E+01  6.92543E+00  1.10209E+01
   1.08415E+01  8.30779E+00  6.22158E+00  8.50982E+00  5.10600E+00  9.12345E+00  1.13049E+01  1.38684E+01  1.24808E+01  1.34185E+01
   9.35250E+00  1.45758E+01  1.13971E+01  1.54735E+01  1.93255E+01  2.98087E+01  4.03122E+01  3.75840E+01  3.77220E+01  2.73456E+01
   1.99842E+01  1.64482E+01  1.28339E+01  5.94737E+00  7.72262E+00  9.58967E+00  8.30229E+00  1.10098E+01  9.79785E+00  1.24156E+01
   6.93777E+00  9.67637E+00  8.00730E+00  8.44823E+00  6.65146E+00  7.08273E+00  5.56805E+00  6.97162E+00  3.35865E+00  6.22608E+00
   5.69635E+00  2.93206E+00  2.95263E+00  5.17991E+00  7.33405E+00  7.64939E+00  2.49932E+00  5.91820E+00  7.12756E+00  5.36817E+00
   1.00935E+01  2.08484E+00  1.78766E+00 -1.35444E+00  2.07212E+00  5.84887E-01 -1.65204E+00  9.78978E-01 -6.24035E+00 -8.40836E+00
  -5.56059E+00 -7.07744E+00 -9.26796E+00 -7.87311E+00 -7.04393E+00 -8.05048E+00 -1.22499E+01 -1.10376E+01 -3.07948E+00 -8.02722E+00
  -7.05340E+00 -5.45225E+00 -9.62727E+00 -7.92440E+00 -2.38992E+00 -6.92629E+00 -3.85273E+00 -3.42012E+00 -1.00407E+00  2.78417E+00
  -6.67263E-01  1.35334E+00  1.10330E+00  7.78185E-01 -2.75447E-01  6.28073E-01  8.73159E-01 -7.65056E+00 -1.16137E+01 -8.28382E+00
  -1.07252E+01 -5.02484E+00  3.81390E-02  4.00267E+00  9.22092E+00  1.00893E+01  1.54085E+00  3.43765E+00  4.01067E-01  7.13360E-01
   1.95374E-01  6.04337E+00  7.38161E+00  1.15154E+01  1.37436E+01  1.71410E+01  1.64351E+01  1.68032E+01  1.37914E+01  9.38913E+00
   2.51834E+00  3.03235E-01  3.29856E+00  4.12036E+00  3.26052E+00  8.41860E+00  4.41259E+00  1.02045E+01  1.38097E+01  1.44470E+01
   1.51617E+01  1.13009E+01  1.17863E+01  8.92891E+00  8.82265E+00  1.35302E+01  1.24508E+01  1.06936E+01  1.30233E+01  8.53420E+00
   1.29197E+01  6.06030E+00  8.15454E+00  9.83232E+00  6.65126E+00  1.33839E+01  1.25342E+01  1.90447E+01  1.91984E+01  2.10681E+01
   2.54885E+01  2.27012E+01  1.96683E+01  2.86450E+01  4.29517E+01  5.54975E+01  6.35481E+01  6.84867E+01  8.03560E+01  1.02464E+02
   1.14998E+02  1.11679E+02  8.95271E+01  6.77294E+01  4.93379E+01  3.50063E+01  1.87078E+01  1.09851E+01  1.29187E+01  1.40019E+01
   1.05089E+01  6.44440E+00  1.07781E+01  1.27483E+01  1.19523E+01  9.37459E+00  3.33803E+00  7.00432E+00  7.52783E+00  6.90246E+00
   6.85514E+00  6.19567E+00  5.18949E+00  6.57844E+00  3.64370E-01  4.72318E+00  3.43646E+00  6.93478E+00  4.24487E+00  1.04344E+01
   8.83138E+00  6.20218E+00  7.09951E+00  8.01598E+00  1.14952E+01  7.00349E+00  6.06813E+00  1.18098E+01  4.52022E+00  6.99955E+00
   1.02007E+01  6.25196E+00  3.68867E+00  5.67601E+00  8.58383E+00  4.24699E+00  7.66196E+00  1.17469E+01  1.45400E+01  1.51001E+01
   1.21662E+01  1.53531E+01  1.06453E+01  1.56475E+01  1.07611E+01  1.27375E+01  1.76215E+01  1.61820E+01  1.97965E+01  2.29952E+01
   1.88362E+01  2.05333E+01  1.75861E+01  1.74906E+01  2.22964E+01  1.92185E+01  2.11164E+01  2.42089E+01  2.14470E+01  2.34627E+01
   2.22679E+01  2.30677E+01  2.11351E+01  2.81955E+01  2.31512E+01  2.96785E+01  2.78154E+01  2.36719E+01  2.26079E+01  2.65167E+01
   2.48900E+01  2.62714E+01  2.98088E+01  2.71433E+01  2.51594E+01  2.78663E+01  2.20689E+01  2.02527E+01  1.60573E+01  1.66454E+01
   1.45302E+01  1.24490E+01  1.18960E+01  1.26501E+01  1.07722E+01  7.91699E+00  6.94570E+00  4.31329E+00  7.83993E+00  1.11866E+01
   9.19122E+00  6.34709E+00  6.20387E+00  8.01587E+00  5.93036E+00  6.00162E+00  7.74840E+00  1.24408E+01  8.43217E+00  1.12014E+01
   1.28520E+01  8.00960E+00  7.24097E+00  4.76705E+00  5.11346E+00  5.57659E+00  4.64161E+00  3.92339E+00  7.01586E+00  1.85445E+00
   4.64056E+00  1.07966E-01  1.47120E+00  5.77065E+00  3.99721E+00  7.47140E+00  1.64137E+00  3.54999E+00  6.02369E+00  6.28444E+00
   7.43904E+00  5.71979E+00  8.84101E+00  6.06637E+00  1.10481E+01  1.22958E+01  1.38332E+01  9.88352E+00  6.36372E+00  1.26574E+01
   9.31247E+00  1.29409E+01  1.27585E+01  1.54370E+01  1.63083E+01  1.46956E+01  1.30421E+01  1.31201E+01  1.68241E+01  1.12591E+01
   1.58556E+01  1.73558E+01  1.18308E+01  1.10015E+01  1.10187E+01  1.08734E+01  7.44260E+00  7.76336E+00  3.74045E+00  1.16378E+01
   1.84647E+00  2.31724E+00  3.17906E+00  4.22899E+00  3.35016E+00  3.99915E+00  4.32647E+00  1.25564E+00  3.05770E+00  4.83600E+00
   7.87303E+00  2.05082E+00  7.28451E+00  3.90080E+00  2.75089E+00  1.57109E+00 -2.06382E+00 -2.81989E+00  3.10081E+00  2.64073E+00
   3.83034E+00  2.11933E+00  9.46562E-01  3.46479E+00 -1.35919E-03  2.90786E+00 -1.79918E+00  6.49746E+00  2.20537E+00 -1.29393E-01
   2.28682E+00  4.40332E+00  4.22432E+00  2.27358E+00 -1.27945E-02  2.19555E-01  4.12234E+00  4.84440E+00  3.40483E+00  3.92044E+00
  -1.99235E+00  5.35612E+00  4.63707E+00 -1.06984E+00  5.48657E+00  4.76736E+00  1.02255E+00  3.96603E+00  1.82975E+00  4.95533E+00
   1.70240E+00  3.03224E+00  6.09778E-01  3.42431E+00  1.05630E+00  1.68124E+00  5.65445E+00  2.49660E+00  6.97758E+00  4.66837E+00
   7.72005E+00  3.92810E+00  9.34715E+00  5.22599E+00  7.13297E+00  6.86019E+00  2.07428E+00  2.76605E+00  1.80642E+00  2.09171E+00
   1.58628E+00  6.06074E+00  2.25546E+00  1.20436E+00  2.73905E+00  5.54317E+00  3.83271E+00 -1.27824E-01
 NY points of the fit to the data follow
   7.90139E+00  8.08749E+00  8.81346E+00  9.65008E+00  1.05354E+01  1.17400E+01  1.34224E+01  1.52090E+01  1.63202E+01  1.61890E+01
   1.49525E+01  1.32321E+01  1.16347E+01  1.04342E+01  9.67072E+00  9.31306E+00  9.19655E+00  9.08906E+00  8.99403E+00  8.98005E+00
   9.04661E+00  9.06494E+00  9.09366E+00  9.35729E+00  9.65746E+00  9.84948E+00  1.00781E+01  1.06446E+01  1.17354E+01  1.31038E+01
   1.43560E+01  1.52056E+01  1.55087E+01  1.51773E+01  1.41415E+01  1.25000E+01  1.06450E+01  8.97661E+00  7.79042E+00  7.33905E+00
   7.69272E+00  8.58206E+00  9.58068E+00  1.04567E+01  1.12800E+01  1.21614E+01  1.29591E+01  1.33379E+01  1.30533E+01  1.21432E+01
   1.08630E+01  9.52486E+00  8.43651E+00  7.76700E+00  7.50107E+00  7.49878E+00  7.62519E+00  7.83811E+00  8.11747E+00  8.37672E+00
   8.48137E+00  8.30971E+00  7.89599E+00  7.36897E+00  6.90270E+00  6.64658E+00  6.62146E+00  6.74737E+00  6.95728E+00  7.22635E+00
   7.49766E+00  7.71311E+00  7.85852E+00  7.95596E+00  8.02005E+00  8.01643E+00  7.87201E+00  7.54770E+00  7.12106E+00  6.80494E+00
   6.78621E+00  6.93414E+00  7.16159E+00  7.54229E+00  8.14611E+00  8.84176E+00  9.26001E+00  9.06762E+00  8.28471E+00  7.27393E+00
   6.38083E+00  5.73718E+00  5.34165E+00  5.16101E+00  5.27922E+00  6.41018E+00  9.06507E+00  1.21248E+01  1.52785E+01  1.95195E+01
   2.57728E+01  3.31559E+01  3.87584E+01  3.97925E+01  3.58511E+01  2.89325E+01  2.15800E+01  1.53350E+01  1.07678E+01  8.06021E+00
   6.88500E+00  6.45923E+00  6.25164E+00  6.12231E+00  6.03930E+00  5.99369E+00  5.98221E+00  6.01626E+00  6.18571E+00  7.04134E+00
   9.25573E+00  1.19640E+01  1.47239E+01  1.82698E+01  2.34975E+01  2.99209E+01  3.52375E+01  3.68897E+01  3.41377E+01  2.84961E+01
   2.22320E+01  1.68058E+01  1.26910E+01  9.91963E+00  8.24604E+00  7.14995E+00  6.34954E+00  5.90821E+00  5.87337E+00  6.15783E+00
   6.56799E+00  6.87525E+00  6.92847E+00  6.71587E+00  6.32970E+00  5.88568E+00  5.46894E+00  5.10296E+00  4.78322E+00  4.50759E+00
   4.25839E+00  4.02124E+00  3.79952E+00  3.57972E+00  3.29821E+00  3.03027E+00  2.87116E+00  2.76505E+00  2.57442E+00  2.08601E+00
   1.36133E+00  8.01934E-01  7.49703E-01  1.14063E+00  1.55988E+00  1.59377E+00  1.12461E+00  3.16293E-01 -5.91812E-01 -1.43770E+00
  -2.08150E+00 -2.39828E+00 -2.55647E+00 -2.85769E+00 -3.44112E+00 -3.99871E+00 -4.07932E+00 -3.61861E+00 -3.01576E+00 -2.72450E+00
  -2.86662E+00 -3.06018E+00 -2.92734E+00 -2.52920E+00 -2.08261E+00 -1.60850E+00 -9.11851E-01  2.03361E-01  1.71202E+00  3.30731E+00
   4.60268E+00  5.24544E+00  5.20334E+00  4.69087E+00  4.00043E+00  3.38518E+00  3.00530E+00  2.97474E+00  3.29379E+00  3.93293E+00
   4.81850E+00  5.82136E+00  6.78340E+00  7.34263E+00  7.25084E+00  6.38132E+00  4.67173E+00  2.44854E+00  2.96312E-01 -1.12768E+00
  -1.46169E+00 -8.31447E-01  6.88693E-01  3.08610E+00  6.04936E+00  8.66387E+00  9.82007E+00  9.12362E+00  7.04372E+00  4.20613E+00
   1.16741E+00 -1.37935E+00 -2.58819E+00 -1.88959E+00  4.56512E-01  3.53914E+00  6.47523E+00  8.72884E+00  1.00625E+01  1.04481E+01
   1.02086E+01  9.84045E+00  9.71202E+00  9.93687E+00  1.04502E+01  1.11268E+01  1.17578E+01  1.22299E+01  1.24898E+01  1.24851E+01
   1.22097E+01  1.18384E+01  1.16982E+01  1.20831E+01  1.30430E+01  1.43332E+01  1.56359E+01  1.67526E+01  1.77416E+01  1.89559E+01
   2.02872E+01  2.17583E+01  2.42671E+01  3.07799E+01  4.15844E+01  5.22268E+01  6.13900E+01  7.18555E+01  8.62895E+01  1.02035E+02
   1.11323E+02  1.07797E+02  9.21389E+01  7.07315E+01  5.00120E+01  3.32055E+01  2.13654E+01  1.47120E+01  1.19216E+01  1.07213E+01
   9.90487E+00  9.30458E+00  8.89304E+00  8.60740E+00  8.35299E+00  8.04946E+00  7.67229E+00  7.24982E+00  6.82042E+00  6.41446E+00
   6.06139E+00  5.78847E+00  5.59755E+00  5.45767E+00  5.33452E+00  5.21807E+00  5.11112E+00  5.01724E+00  4.94513E+00  4.91392E+00
   4.94437E+00  5.04063E+00  5.18812E+00  5.37108E+00  5.57985E+00  5.80975E+00  6.06115E+00  6.33863E+00  6.65289E+00  7.01585E+00
   7.43213E+00  7.89593E+00  8.39624E+00  8.92079E+00  9.45867E+00  9.99954E+00  1.05353E+01  1.10608E+01  1.15724E+01  1.20664E+01
   1.25403E+01  1.29924E+01  1.34231E+01  1.38357E+01  1.42368E+01  1.46355E+01  1.50439E+01  1.54761E+01  1.59517E+01  1.65007E+01
   1.71668E+01  1.78951E+01  1.86045E+01  1.93391E+01  2.01488E+01  2.09617E+01  2.15761E+01  2.18186E+01  2.17875E+01  2.17869E+01
   2.19853E+01  2.24168E+01  2.30963E+01  2.40748E+01  2.53216E+01  2.65909E+01  2.75381E+01  2.79531E+01  2.78419E+01  2.73460E+01
   2.66298E+01  2.57618E+01  2.47612E+01  2.37088E+01  2.26500E+01  2.15389E+01  2.02470E+01  1.86665E+01  1.68998E+01  1.51663E+01
   1.36236E+01  1.23638E+01  1.14535E+01  1.09440E+01  1.07879E+01  1.07798E+01  1.06764E+01  1.03622E+01  9.87212E+00  9.30034E+00
   8.72484E+00  8.19771E+00  7.75803E+00  7.40968E+00  7.12446E+00  6.87746E+00  6.65685E+00  6.45547E+00  6.26913E+00  6.09525E+00
   5.93301E+00  5.78225E+00  5.64381E+00  5.51886E+00  5.40943E+00  5.31777E+00  5.24665E+00  5.19859E+00  5.17641E+00  5.18270E+00
   5.22046E+00  5.29247E+00  5.40165E+00  5.55038E+00  5.74110E+00  5.97578E+00  6.25638E+00  6.58410E+00  6.95955E+00  7.38207E+00
   7.85014E+00  8.36079E+00  8.90984E+00  9.49114E+00  1.00969E+01  1.07174E+01  1.13414E+01  1.19562E+01  1.25482E+01  1.31028E+01
   1.36055E+01  1.40420E+01  1.43994E+01  1.46665E+01  1.48344E+01  1.48968E+01  1.48508E+01  1.46963E+01  1.44373E+01  1.40802E+01
   1.36347E+01  1.31122E+01  1.25264E+01  1.18913E+01  1.12223E+01  1.05337E+01  9.83962E+00  9.15228E+00  8.48273E+00  7.83998E+00
   7.23142E+00  6.66222E+00  6.13588E+00  5.65396E+00  5.21693E+00  4.82392E+00  4.47338E+00  4.16276E+00  3.88925E+00  3.64955E+00
   3.44058E+00  3.25914E+00  3.10236E+00  2.96721E+00  2.85113E+00  2.75158E+00  2.66663E+00  2.59437E+00  2.53330E+00  2.48183E+00
   2.43876E+00  2.40295E+00  2.37367E+00  2.35008E+00  2.33161E+00  2.31747E+00  2.30724E+00  2.30042E+00  2.29684E+00  2.29608E+00
   2.29791E+00  2.30191E+00  2.30797E+00  2.31586E+00  2.32558E+00  2.33686E+00  2.34961E+00  2.36355E+00  2.37872E+00  2.39497E+00
   2.41238E+00  2.43070E+00  2.44992E+00  2.46983E+00  2.49055E+00  2.51199E+00  2.53421E+00  2.55698E+00  2.58031E+00  2.60408E+00
   2.62844E+00  2.65329E+00  2.67867E+00  2.70439E+00  2.73049E+00  2.75690E+00  2.78377E+00  2.81098E+00  2.83856E+00  2.86633E+00
   2.89438E+00  2.92266E+00  2.95132E+00  2.98020E+00  3.00936E+00  3.03862E+00  3.06813E+00  3.09784E+00  3.12788E+00  3.15808E+00
   3.18849E+00  3.21899E+00  3.24975E+00  3.28073E+00  3.31203E+00  3.34349E+00  3.37518E+00  3.40704E+00
 NY background values follow
     7.073E+00    7.049E+00    7.024E+00    7.000E+00    6.976E+00    6.951E+00    6.927E+00    6.903E+00    6.878E+00    6.854E+00
     6.830E+00    6.805E+00    6.781E+00    6.757E+00    6.733E+00    6.708E+00    6.684E+00    6.660E+00    6.635E+00    6.611E+00
     6.587E+00    6.563E+00    6.538E+00    6.514E+00    6.490E+00    6.465E+00    6.441E+00    6.417E+00    6.392E+00    6.368E+00
     6.343E+00    6.319E+00    6.295E+00    6.270E+00    6.246E+00    6.221E+00    6.196E+00    6.172E+00    6.147E+00    6.123E+00
     6.098E+00    6.073E+00    6.048E+00    6.024E+00    5.999E+00    5.974E+00    5.949E+00    5.924E+00    5.899E+00    5.874E+00
     5.849E+00    5.823E+00    5.798E+00    5.773E+00    5.747E+00    5.721E+00    5.696E+00    5.670E+00    5.644E+00    5.618E+00
     5.592E+00    5.566E+00    5.539E+00    5.513E+00    5.486E+00    5.460E+00    5.433E+00    5.405E+00    5.378E+00    5.351E+00
     5.323E+00    5.296E+00    5.268E+00    5.239E+00    5.211E+00    5.183E+00    5.154E+00    5.125E+00    5.096E+00    5.067E+00
     5.037E+00    5.007E+00    4.977E+00    4.947E+00    4.917E+00    4.886E+00    4.855E+00    4.823E+00    4.792E+00    4.760E+00
     4.728E+00    4.696E+00    4.663E+00    4.630E+00    4.597E+00    4.564E+00    4.530E+00    4.496E+00    4.462E+00    4.427E+00
     4.393E+00    4.358E+00    4.322E+00    4.287E+00    4.251E+00    4.215E+00    4.179E+00    4.143E+00    4.106E+00    4.069E+00
     4.032E+00    3.995E+00    3.958E+00    3.920E+00    3.882E+00    3.844E+00    3.806E+00    3.767E+00    3.729E+00    3.690E+00
     3.651E+00    3.612E+00    3.572E+00    3.533E+00    3.493E+00    3.453E+00    3.414E+00    3.373E+00    3.333E+00    3.293E+00
     3.252E+00    3.212E+00    3.171E+00    3.130E+00    3.089E+00    3.047E+00    3.006E+00    2.965E+00    2.923E+00    2.882E+00
     2.840E+00    2.798E+00    2.757E+00    2.715E+00    2.673E+00    2.632E+00    2.591E+00    2.549E+00    2.508E+00    2.467E+00
     2.426E+00    2.385E+00    2.345E+00    2.304E+00    2.264E+00    2.224E+00    2.185E+00    2.146E+00    2.107E+00    2.068E+00
     2.030E+00    1.992E+00    1.955E+00    1.918E+00    1.882E+00    1.846E+00    1.810E+00    1.775E+00    1.741E+00    1.707E+00
     1.674E+00    1.641E+00    1.609E+00    1.577E+00    1.547E+00    1.517E+00    1.487E+00    1.459E+00    1.431E+00    1.404E+00
     1.377E+00    1.352E+00    1.327E+00    1.303E+00    1.280E+00    1.258E+00    1.236E+00    1.215E+00    1.195E+00    1.176E+00
     1.157E+00    1.139E+00    1.122E+00    1.105E+00    1.089E+00    1.074E+00    1.059E+00    1.045E+00    1.031E+00    1.019E+00
     1.006E+00    9.944E-01    9.832E-01    9.724E-01    9.622E-01    9.525E-01    9.433E-01    9.345E-01    9.262E-01    9.183E-01
     9.109E-01    9.038E-01    8.972E-01    8.909E-01    8.851E-01    8.795E-01    8.744E-01    8.695E-01    8.650E-01    8.607E-01
     8.568E-01    8.531E-01    8.497E-01    8.465E-01    8.436E-01    8.409E-01    8.383E-01    8.360E-01    8.338E-01    8.319E-01
     8.301E-01    8.285E-01    8.270E-01    8.257E-01    8.246E-01    8.237E-01    8.229E-01    8.222E-01    8.217E-01    8.214E-01
     8.212E-01    8.211E-01    8.212E-01    8.214E-01    8.218E-01    8.222E-01    8.228E-01    8.235E-01    8.243E-01    8.253E-01
     8.263E-01    8.274E-01    8.287E-01    8.300E-01    8.315E-01    8.330E-01    8.346E-01    8.363E-01    8.381E-01    8.400E-01
     8.419E-01    8.439E-01    8.460E-01    8.481E-01    8.503E-01    8.525E-01    8.548E-01    8.572E-01    8.596E-01    8.620E-01
     8.645E-01    8.670E-01    8.695E-01    8.721E-01    8.747E-01    8.773E-01    8.800E-01    8.826E-01    8.853E-01    8.880E-01
     8.907E-01    8.935E-01    8.962E-01    8.989E-01    9.017E-01    9.044E-01    9.072E-01    9.099E-01    9.126E-01    9.154E-01
     9.181E-01    9.208E-01    9.235E-01    9.262E-01    9.288E-01    9.315E-01    9.341E-01    9.367E-01    9.392E-01    9.418E-01
     9.442E-01    9.467E-01    9.491E-01    9.515E-01    9.539E-01    9.562E-01    9.584E-01    9.606E-01    9.628E-01    9.649E-01
     9.670E-01    9.689E-01    9.709E-01    9.727E-01    9.746E-01    9.763E-01    9.780E-01    9.796E-01    9.811E-01    9.826E-01
     9.840E-01    9.853E-01    9.866E-01    9.879E-01    9.891E-01    9.903E-01    9.915E-01    9.926E-01    9.937E-01    9.948E-01
     9.959E-01    9.969E-01    9.980E-01    9.991E-01    1.000E+00    1.001E+00    1.002E+00    1.003E+00    1.005E+00    1.006E+00
     1.007E+00    1.008E+00    1.010E+00    1.011E+00    1.012E+00    1.014E+00    1.015E+00    1.017E+00    1.019E+00    1.020E+00
     1.022E+00    1.024E+00    1.026E+00    1.028E+00    1.030E+00    1.033E+00    1.035E+00    1.037E+00    1.040E+00    1.043E+00
     1.046E+00    1.049E+00    1.052E+00    1.055E+00    1.059E+00    1.062E+00    1.066E+00    1.070E+00    1.074E+00    1.078E+00
     1.083E+00    1.088E+00    1.092E+00    1.097E+00    1.103E+00    1.108E+00    1.114E+00    1.120E+00    1.126E+00    1.133E+00
     1.139E+00    1.146E+00    1.153E+00    1.161E+00    1.168E+00    1.176E+00    1.185E+00    1.193E+00    1.202E+00    1.211E+00
     1.221E+00    1.231E+00    1.241E+00    1.251E+00    1.262E+00    1.273E+00    1.285E+00    1.297E+00    1.309E+00    1.321E+00
     1.334E+00    1.347E+00    1.361E+00    1.375E+00    1.390E+00    1.405E+00    1.420E+00    1.436E+00    1.452E+00    1.468E+00
     1.485E+00    1.502E+00    1.520E+00    1.538E+00    1.557E+00    1.576E+00    1.595E+00    1.614E+00    1.634E+00    1.655E+00
     1.675E+00    1.696E+00    1.717E+00    1.739E+00    1.761E+00    1.783E+00    1.806E+00    1.829E+00    1.852E+00    1.876E+00
     1.899E+00    1.923E+00    1.948E+00    1.972E+00    1.997E+00    2.022E+00    2.048E+00    2.074E+00    2.099E+00    2.126E+00
     2.152E+00    2.178E+00    2.205E+00    2.232E+00    2.260E+00    2.287E+00    2.315E+00    2.342E+00    2.370E+00    2.399E+00
     2.427E+00    2.456E+00    2.484E+00    2.513E+00    2.542E+00    2.571E+00    2.600E+00    2.630E+00    2.659E+00    2.689E+00
     2.719E+00    2.749E+00    2.779E+00    2.809E+00    2.839E+00    2.870E+00    2.900E+00    2.931E+00    2.961E+00    2.992E+00
     3.023E+00    3.054E+00    3.084E+00    3.115E+00    3.146E+00    3.177E+00    3.208E+00    3.240E+00    3.271E+00    3.302E+00
     3.333E+00    3.364E+00    3.396E+00    3.427E+00    3.458E+00    3.489E+00    3.521E+00    3.552E+00    3.583E+00    3.614E+00
     3.645E+00    3.677E+00    3.708E+00    3.739E+00    3.770E+00    3.801E+00    3.832E+00    3.862E+00
 Ala      Conc. = 1.56E+02
