 LCModel (Version 6.3-1L) Copyright: S.W. Provencher.          Ref.: Magn. Reson. Med. 30:672-679 (1993).                
 Slice#1 Row#8 Col#6  K_02_press_1_raw_act
 36 lines in following concentration table = NCONC+1
    Conc.  %SD /Cr+PCr  Metabolite                                         
    0.000 999%   0.000 Ala                                                 
   98.435 203%   0.105 Asp                                                 
  313.215  51%   0.333 Cr                                                  
  628.541  26%   0.667 PCr                                                 
    0.000 999%   0.000 GABA                                                
  104.030 123%   0.110 Glc                                                 
  290.924  78%   0.309 Gln                                                 
  810.152  32%   0.860 Glu                                                 
  333.250   8%   0.354 GPC                                                 
    0.000 999%   0.000 PCh                                                 
  245.321  33%   0.260 GSH                                                 
  558.208  46%   0.593 Ins                                                 
   51.325 242% 5.4E-02 Lac                                                 
 1.50E+03   7%   1.589 NAA                                                 
  528.820  18%   0.562 NAAG                                                
    0.000 999%   0.000 Scyllo                                              
    0.000 999%   0.000 Tau                                                 
    0.000 999%   0.000 -CrCH2                                              
  333.250   8%   0.354 GPC+PCh                                             
 2.02E+03   5%   2.150 NAA+NAAG                                            
  941.755   7%   1.000 Cr+PCr                                              
 1.10E+03  31%   1.169 Glu+Gln                                             
 1.33E+03  32%   1.416 Lip13a                                              
    0.000 999%   0.000 Lip13b                                              
  279.647  70%   0.297 Lip09                                               
 1.30E+03  18%   1.383 MM09                                                
  214.449  62%   0.228 Lip20                                               
 1.99E+03  21%   2.115 MM20                                                
  396.703  42%   0.421 MM12                                                
 1.43E+03  23%   1.514 MM14                                                
  445.077  49%   0.473 MM17                                                
 1.33E+03  32%   1.416 Lip13a+Lip13b                                       
 3.16E+03  11%   3.351 MM14+Lip13a+Lip13b+MM12                             
 1.58E+03  12%   1.680 MM09+Lip09                                          
 2.21E+03  18%   2.343 MM20+Lip20                                          
   6 lines in following misc. output table
  FWHM = 0.031 ppm    S/N =   8                                            
  Data shift = 0.000 ppm                                                   
  Ph:   1 deg      13.4 deg/ppm                                            
  alphaB,S = 3.1E+00,   1.1E+01                                            
   14 spline knots.   Ns = 6(1)                                            
  (10) 5 infls.   (11) 3 extrs.                                            
  498 points on ppm-axis = NY
      4.000000     3.992357     3.984714     3.977070     3.969427     3.961784     3.954141     3.946497     3.938854     3.931211
      3.923568     3.915925     3.908281     3.900638     3.892995     3.885352     3.877708     3.870065     3.862422     3.854779
      3.847136     3.839492     3.831849     3.824206     3.816563     3.808919     3.801276     3.793633     3.785990     3.778347
      3.770703     3.763060     3.755417     3.747774     3.740130     3.732487     3.724844     3.717201     3.709558     3.701914
      3.694271     3.686628     3.678985     3.671341     3.663698     3.656055     3.648412     3.640769     3.633125     3.625482
      3.617839     3.610196     3.602552     3.594909     3.587266     3.579623     3.571980     3.564336     3.556693     3.549050
      3.541407     3.533763     3.526120     3.518477     3.510834     3.503191     3.495547     3.487904     3.480261     3.472618
      3.464974     3.457331     3.449688     3.442045     3.434402     3.426758     3.419115     3.411472     3.403829     3.396185
      3.388542     3.380899     3.373256     3.365613     3.357969     3.350326     3.342683     3.335040     3.327396     3.319753
      3.312110     3.304467     3.296824     3.289180     3.281537     3.273894     3.266251     3.258607     3.250964     3.243321
      3.235678     3.228034     3.220391     3.212748     3.205105     3.197462     3.189818     3.182175     3.174532     3.166889
      3.159245     3.151602     3.143959     3.136316     3.128673     3.121029     3.113386     3.105743     3.098100     3.090456
      3.082813     3.075170     3.067527     3.059884     3.052240     3.044597     3.036954     3.029311     3.021667     3.014024
      3.006381     2.998738     2.991095     2.983451     2.975808     2.968165     2.960522     2.952878     2.945235     2.937592
      2.929949     2.922306     2.914662     2.907019     2.899376     2.891733     2.884089     2.876446     2.868803     2.861160
      2.853517     2.845873     2.838230     2.830587     2.822944     2.815300     2.807657     2.800014     2.792371     2.784728
      2.777084     2.769441     2.761798     2.754155     2.746511     2.738868     2.731225     2.723582     2.715939     2.708295
      2.700652     2.693009     2.685366     2.677722     2.670079     2.662436     2.654793     2.647150     2.639506     2.631863
      2.624220     2.616577     2.608933     2.601290     2.593647     2.586004     2.578361     2.570717     2.563074     2.555431
      2.547788     2.540144     2.532501     2.524858     2.517215     2.509572     2.501928     2.494285     2.486642     2.478999
      2.471355     2.463712     2.456069     2.448426     2.440783     2.433139     2.425496     2.417853     2.410210     2.402566
      2.394923     2.387280     2.379637     2.371994     2.364350     2.356707     2.349064     2.341421     2.333777     2.326134
      2.318491     2.310848     2.303205     2.295561     2.287918     2.280275     2.272632     2.264988     2.257345     2.249702
      2.242059     2.234416     2.226772     2.219129     2.211486     2.203843     2.196199     2.188556     2.180913     2.173270
      2.165627     2.157983     2.150340     2.142697     2.135054     2.127410     2.119767     2.112124     2.104481     2.096838
      2.089194     2.081551     2.073908     2.066265     2.058621     2.050978     2.043335     2.035692     2.028049     2.020405
      2.012762     2.005119     1.997476     1.989833     1.982190     1.974546     1.966903     1.959260     1.951617     1.943974
      1.936331     1.928688     1.921045     1.913402     1.905759     1.898115     1.890472     1.882829     1.875186     1.867543
      1.859900     1.852257     1.844614     1.836971     1.829327     1.821684     1.814041     1.806398     1.798755     1.791112
      1.783469     1.775826     1.768183     1.760540     1.752896     1.745253     1.737610     1.729967     1.722324     1.714681
      1.707038     1.699395     1.691752     1.684108     1.676465     1.668822     1.661179     1.653536     1.645893     1.638250
      1.630607     1.622964     1.615321     1.607677     1.600034     1.592391     1.584748     1.577105     1.569462     1.561819
      1.554176     1.546533     1.538890     1.531246     1.523603     1.515960     1.508317     1.500674     1.493031     1.485388
      1.477745     1.470102     1.462458     1.454815     1.447172     1.439529     1.431886     1.424243     1.416600     1.408957
      1.401314     1.393671     1.386027     1.378384     1.370741     1.363098     1.355455     1.347812     1.340169     1.332526
      1.324883     1.317240     1.309596     1.301953     1.294310     1.286667     1.279024     1.271381     1.263738     1.256095
      1.248452     1.240808     1.233165     1.225522     1.217879     1.210236     1.202593     1.194950     1.187307     1.179664
      1.172021     1.164377     1.156734     1.149091     1.141448     1.133805     1.126162     1.118519     1.110876     1.103233
      1.095590     1.087946     1.080303     1.072660     1.065017     1.057374     1.049731     1.042088     1.034445     1.026802
      1.019158     1.011515     1.003872     0.996229     0.988586     0.980943     0.973300     0.965657     0.958014     0.950371
      0.942727     0.935084     0.927441     0.919798     0.912155     0.904512     0.896869     0.889226     0.881583     0.873940
      0.866296     0.858653     0.851010     0.843367     0.835724     0.828081     0.820438     0.812795     0.805152     0.797508
      0.789865     0.782222     0.774579     0.766936     0.759293     0.751650     0.744007     0.736364     0.728721     0.721077
      0.713434     0.705791     0.698148     0.690505     0.682862     0.675219     0.667576     0.659933     0.652290     0.644646
      0.637003     0.629360     0.621717     0.614074     0.606431     0.598788     0.591145     0.583502     0.575858     0.568215
      0.560572     0.552929     0.545286     0.537643     0.530000     0.522357     0.514714     0.507071     0.499427     0.491784
      0.484141     0.476498     0.468855     0.461212     0.453569     0.445925     0.438282     0.430639     0.422996     0.415353
      0.407710     0.400067     0.392424     0.384780     0.377137     0.369494     0.361851     0.354208     0.346565     0.338922
      0.331278     0.323635     0.315992     0.308349     0.300706     0.293063     0.285420     0.277777     0.270133     0.262490
      0.254847     0.247204     0.239561     0.231918     0.224275     0.216631     0.208988     0.201345
 NY phased data points follow
   2.64815E+01  3.10346E+01  3.39231E+01  2.49742E+01  2.82564E+01  3.55156E+01  3.18106E+01  3.09651E+01  3.79726E+01  4.71437E+01
   5.38765E+01  4.89380E+01  4.02990E+01  3.42261E+01  3.69746E+01  3.24284E+01  1.99963E+01  3.83628E+01  2.88563E+01  1.64385E+01
   2.43610E+01  2.63802E+01  2.18053E+01  2.19032E+01  2.19790E+01  2.95356E+01  2.25186E+01  2.17007E+01  1.92513E+01  2.54270E+01
   2.49709E+01  3.00276E+01  2.18904E+01  2.15577E+01  2.28091E+01  1.75692E+01  1.82737E+01  1.97400E+01  1.90459E+01  2.25973E+01
   2.46200E+01  1.85764E+01  1.90801E+01  2.53730E+01  1.76101E+01  1.85486E+01  1.61378E+01  2.39885E+01  2.11890E+01  1.81587E+01
   2.00130E+01  2.13890E+01  1.56819E+01  2.30746E+01  1.03012E+01  1.64223E+01  1.95662E+01  2.03208E+01  2.14547E+01  1.68094E+01
   1.86593E+01  8.51047E+00  7.02511E+00  2.37813E+00  1.23351E+01  8.08608E+00  2.71341E+00  8.30638E+00  1.88515E+01  7.84229E+00
   1.06243E+01  1.04334E+01  1.11967E+01  4.29815E+00  1.13222E+01  1.36615E+01  9.99059E+00  1.25228E+01  1.51016E+01  6.87299E+00
   2.46684E+00  9.78574E+00  1.64208E+01  6.97155E+00  7.67115E+00  4.00239E+00  3.30158E+00  1.38356E+00  4.35676E+00  2.06285E+00
   1.14575E+01  2.22020E+00  1.02337E+01  9.55099E+00  1.19358E+01  1.47976E+01  6.93248E+00  9.52200E+00  4.02464E+00  1.05594E+01
   2.18963E+01  2.81415E+01  4.20954E+01  5.58234E+01  3.98367E+01  3.36893E+01  1.90702E+01  2.41672E+01  1.77844E+01  1.39224E+01
   1.94187E+01  1.22820E+01  7.96412E+00  1.23022E+01  1.19468E+01  3.90764E+00  3.87442E+00  4.08667E+00  4.04082E+00  5.75597E+00
   1.73680E+01  3.30344E+00  3.64121E+00  9.64279E+00  1.57757E+01  2.38698E+01  3.62074E+01  4.23948E+01  4.31688E+01  3.37093E+01
   2.31154E+01  1.72228E+01  1.35325E+01  7.21382E+00  1.23768E+01  1.89721E+01  1.05685E+01  1.00622E+01  1.28989E+01  3.58134E+00
   3.40999E+00  3.36265E+00  5.35042E+00  2.23973E+00 -7.59986E-01  6.73648E+00  4.59214E+00  2.54242E+00  5.02392E+00  6.08557E+00
   1.18666E+00  4.63596E+00  1.03962E+01 -1.95494E+00  4.81013E+00 -1.11964E+00 -5.34773E-01  5.80239E+00 -3.52351E+00  3.54302E+00
  -2.11399E+00  3.14655E+00  6.34906E+00 -2.07730E+00 -1.09102E+00  1.02896E+01  5.93118E-01  7.49429E+00  2.77832E+00 -4.85511E+00
  -1.94497E+00 -2.06611E+00  9.89544E-01 -9.58934E+00 -7.98808E+00 -1.37999E+01 -2.09319E+01 -5.79873E+00 -8.26097E+00 -1.20801E+01
  -1.58354E+01 -1.54009E+01 -5.05813E+00 -4.80321E+00 -7.42948E+00 -4.42776E+00 -1.13812E+01 -8.03760E-01 -5.24973E+00  2.96948E-01
  -1.07375E+01 -9.11767E+00 -2.87891E+00 -1.37254E+00 -4.95028E+00 -6.00877E+00  1.16409E+00 -7.02018E+00 -1.31652E+01 -1.10967E+01
  -1.40760E+01 -9.17372E+00  6.67048E-03  2.72028E+00  5.38021E+00 -2.47124E+00  1.62143E+00 -2.00846E+00 -5.89790E+00 -6.61454E+00
  -6.80772E-01  2.42227E-01 -6.21036E+00  2.42141E+00 -1.07436E+00 -3.31074E+00  3.77943E+00  5.65754E+00  1.93519E+00 -3.14903E+00
  -5.18160E+00 -6.04555E+00 -7.71806E+00 -8.03799E+00 -9.20854E+00 -4.79279E+00  5.96267E+00 -2.17284E+00  1.34232E-01  4.00049E-01
   2.13302E-01  4.36403E+00 -1.90060E+00 -4.75835E-01 -8.24749E+00 -9.24461E-02  4.07551E+00  4.60604E+00  4.85159E+00 -2.01243E+00
   1.28484E+00 -7.69618E+00 -8.77487E+00 -5.77996E-01 -3.94113E+00  4.88074E+00 -7.04160E+00  1.40603E+00  5.07993E+00  5.68117E+00
   7.53776E+00  9.10885E+00  8.84128E+00  1.07226E+01  2.78930E+01  2.83968E+01  3.40617E+01  2.44421E+01  3.96113E+01  5.82676E+01
   7.61069E+01  6.73441E+01  5.39028E+01  3.30278E+01  2.16967E+01  1.57941E+01 -1.97919E+00  8.75865E+00  2.52318E+00  2.02013E+00
   5.16078E-01 -4.16006E+00 -6.82168E-01 -5.33332E+00 -1.22902E+01 -7.06176E+00 -8.89343E+00  2.94425E+00 -2.28956E+00 -6.16346E+00
  -7.21857E+00 -8.02244E+00 -8.45096E+00 -1.50612E+01 -9.52529E+00 -1.12545E+01 -1.09991E+01 -1.01250E+01 -3.22190E+00 -1.80005E+01
  -6.75235E+00 -1.18319E+01  8.04798E-01 -1.25500E+01 -9.49197E+00 -2.79942E+00 -2.18783E+00 -8.75007E+00 -9.35890E+00 -9.83921E+00
   1.31144E+00 -1.89225E+00 -4.02222E+00 -8.89452E+00 -3.30569E+00 -2.33267E+00 -4.98332E+00 -4.58380E+00 -5.56007E+00 -6.36219E+00
   2.35028E+00 -1.28073E+01 -1.30243E+01 -1.76537E+00 -1.23980E+01 -5.32024E+00 -8.68539E+00 -4.95358E+00 -5.02946E+00 -7.66014E+00
  -7.29063E+00 -5.24533E+00 -4.31040E+00 -1.44085E+01 -1.65752E+00 -1.32150E+01 -2.40421E+00 -5.30110E+00 -1.14162E+01 -7.89420E+00
  -1.39836E+01  6.21406E-01  5.87514E+00 -4.82382E+00  4.91069E+00 -9.62530E-02 -9.07324E-02 -1.61726E+00 -6.60527E+00  1.95711E+00
  -4.19081E-01 -5.37065E-01  6.90290E+00 -9.17462E+00  3.41153E+00  5.52539E+00  3.81231E+00  6.10725E+00  6.28126E+00 -3.97995E-01
  -1.11650E+00 -2.37501E+00  4.20545E+00 -1.56794E+00  1.17267E-01 -8.13618E+00  1.26750E+00 -9.05237E+00 -1.33298E+00 -2.07645E+00
  -5.07235E+00 -1.89609E+00 -2.39891E+00  4.80027E-01  2.58070E+00 -6.64871E+00 -7.21193E+00  3.23879E+00 -5.01364E+00  1.09297E+00
  -4.69796E+00 -5.15084E+00 -5.07662E+00 -7.93062E+00 -9.91511E+00 -6.75838E+00 -3.94754E+00 -5.18980E-01 -1.07218E+01 -1.15365E+01
  -4.57719E+00 -1.08338E+01 -9.61963E+00 -8.30492E+00 -9.97832E+00 -3.91231E-01 -9.76436E+00 -6.06040E+00 -4.74330E+00 -1.12848E+01
  -5.54619E-01 -3.92558E+00  2.76709E+00 -7.89669E+00  2.59028E+00  2.71593E+00 -1.53031E+00 -7.58567E-02  9.21225E-01  2.05469E-01
   1.89595E+00  2.53982E+00  1.68081E+00 -2.06991E+00 -4.13430E-01  3.18060E+00  8.23134E+00  7.69233E+00  2.05315E+00 -1.31733E+00
  -7.45835E+00 -3.13374E+00 -9.45761E+00 -5.39249E+00 -8.66953E+00 -6.66478E-01 -8.27833E+00 -4.25186E+00  5.62182E-01 -1.17900E+01
  -5.34347E+00 -6.75684E+00 -1.45892E+01 -2.70753E+00 -1.14847E+01 -1.85963E+01 -1.14912E+01 -1.27772E+01 -1.99776E+01 -1.12930E+01
  -1.12938E+01 -1.10795E+01 -8.78850E+00 -8.61004E+00 -7.93683E+00 -1.61628E+01 -1.47066E+01 -1.27147E+01 -9.76702E+00 -1.56405E+01
  -2.21304E+01 -1.32446E+01 -7.22374E+00 -1.36770E+01 -8.52806E+00 -1.23815E+01 -1.78612E+01 -1.44353E+01 -6.28564E+00 -1.21638E+01
  -1.35675E+01 -1.55066E+01 -8.67664E+00 -5.09802E+00 -1.31034E+01 -9.82266E+00 -8.13581E+00 -1.07860E+01 -1.06238E+01 -4.74884E+00
  -1.36374E+01 -1.14210E+01 -9.25268E+00 -1.39034E+01 -1.44964E+01 -1.11046E+01 -1.13644E+01 -1.23118E+01 -5.12858E+00 -4.84078E+00
  -9.91523E+00 -1.30478E+01 -1.01900E+01 -8.16016E+00 -1.11040E+01 -1.06090E+00 -2.48032E+00 -1.00725E+01 -1.32030E+01 -1.07636E+01
  -6.83354E+00 -1.28271E+01 -6.25333E+00 -7.89598E+00 -1.30632E+01 -8.63055E+00 -9.83450E+00 -5.77109E+00 -1.34615E+01 -7.73269E+00
  -1.36406E+01 -8.73781E+00 -1.16479E+01 -1.06541E+01 -9.42184E+00 -6.97052E+00 -8.53815E+00 -9.00449E+00
 NY points of the fit to the data follow
   2.29219E+01  2.27379E+01  2.29516E+01  2.33834E+01  2.46502E+01  2.61742E+01  2.74720E+01  3.06073E+01  3.73007E+01  4.55129E+01
   4.96198E+01  4.64698E+01  3.94130E+01  3.36129E+01  3.01087E+01  2.72327E+01  2.61868E+01  2.53135E+01  2.27702E+01  2.12641E+01
   2.08807E+01  2.08268E+01  2.06131E+01  2.02901E+01  2.01510E+01  1.99750E+01  1.94232E+01  1.93846E+01  2.10241E+01  2.42529E+01
   2.68785E+01  2.72473E+01  2.60196E+01  2.45366E+01  2.25919E+01  2.01913E+01  1.87730E+01  1.83144E+01  1.76587E+01  1.75721E+01
   1.76542E+01  1.80847E+01  1.82779E+01  1.84769E+01  1.89732E+01  2.00469E+01  2.18005E+01  2.22655E+01  2.09114E+01  1.92638E+01
   1.81275E+01  1.69631E+01  1.60413E+01  1.57909E+01  1.56113E+01  1.51618E+01  1.48692E+01  1.49345E+01  1.52440E+01  1.56219E+01
   1.55591E+01  1.50168E+01  1.42367E+01  1.34101E+01  1.27442E+01  1.25461E+01  1.26189E+01  1.26785E+01  1.27455E+01  1.27731E+01
   1.29459E+01  1.31025E+01  1.30466E+01  1.28614E+01  1.26068E+01  1.24394E+01  1.21950E+01  1.19239E+01  1.17490E+01  1.14472E+01
   1.11278E+01  1.07901E+01  1.04942E+01  1.01897E+01  9.74198E+00  9.08189E+00  8.29749E+00  7.67675E+00  7.45944E+00  7.60888E+00
   7.93004E+00  8.27668E+00  8.57809E+00  8.79330E+00  9.01414E+00  9.16502E+00  9.42919E+00  1.08326E+01  1.25420E+01  1.35359E+01
   1.84089E+01  3.01409E+01  4.48387E+01  5.17953E+01  4.54988E+01  3.33445E+01  2.45771E+01  1.98321E+01  1.46971E+01  1.32541E+01
   1.32236E+01  8.78936E+00  7.29974E+00  6.93498E+00  6.77348E+00  6.66831E+00  6.61650E+00  6.59271E+00  6.58119E+00  6.62769E+00
   6.98196E+00  8.22863E+00  1.01796E+01  1.18831E+01  1.56187E+01  2.46805E+01  3.73607E+01  4.60976E+01  4.43779E+01  3.48618E+01
   2.55736E+01  2.01231E+01  1.61299E+01  1.34780E+01  1.23012E+01  8.48381E+00  4.92401E+00  3.80638E+00  3.64243E+00  3.98143E+00
   4.62785E+00  4.95628E+00  4.81097E+00  4.61107E+00  4.31997E+00  3.98637E+00  3.75403E+00  3.34853E+00  3.06995E+00  2.75080E+00
   2.41936E+00  2.05653E+00  1.64554E+00  1.20136E+00  8.97351E-01  8.96523E-01  1.10511E+00  1.25461E+00  9.71391E-01  1.34790E-01
  -1.05225E+00 -1.78693E+00 -1.52621E+00 -7.51383E-01 -2.24116E-01 -3.70030E-01 -1.15939E+00 -2.16884E+00 -2.85170E+00 -3.00490E+00
  -3.05599E+00 -2.85172E+00 -2.90101E+00 -3.65142E+00 -4.62464E+00 -5.49912E+00 -5.66654E+00 -4.75888E+00 -3.95643E+00 -4.20119E+00
  -5.12125E+00 -5.67017E+00 -5.29420E+00 -4.47747E+00 -3.84742E+00 -4.14172E+00 -4.36557E+00 -3.81732E+00 -2.51588E+00 -8.35044E-01
   3.53163E-01  6.60002E-01  1.40412E-01 -8.73748E-01 -1.65331E+00 -1.88771E+00 -2.40800E+00 -2.94190E+00 -2.83133E+00 -2.19203E+00
  -1.42277E+00 -6.90163E-01 -3.56145E-02  8.59282E-01  8.21012E-01 -6.94281E-02 -1.46360E+00 -3.53285E+00 -5.54372E+00 -6.83207E+00
  -6.67500E+00 -6.02970E+00 -5.36915E+00 -3.89416E+00 -1.26573E+00  1.43557E+00  1.76376E+00  3.38600E-01 -1.57179E+00 -3.68486E+00
  -5.97109E+00 -8.21145E+00 -8.91666E+00 -7.57769E+00 -5.39602E+00 -3.19905E+00 -1.87802E+00 -9.62375E-01 -5.02944E-01 -8.44858E-01
  -1.44526E+00 -1.78484E+00 -1.84540E+00 -1.34181E+00 -7.76075E-01 -2.52808E-01  4.68763E-01  9.89243E-01  8.81403E-01  1.27641E-01
  -9.45732E-01 -2.01600E+00 -2.69596E+00 -2.24888E+00 -9.52803E-01  3.56867E-01  1.14876E+00  1.66614E+00  1.93538E+00  2.22905E+00
   3.43475E+00  4.17671E+00  6.14193E+00  1.16102E+01  2.14755E+01  3.11639E+01  3.15704E+01  2.99656E+01  3.91207E+01  5.95634E+01
   7.39938E+01  6.82877E+01  5.11227E+01  3.31680E+01  2.34326E+01  1.47814E+01  9.08610E+00  1.06014E+01  3.35090E+00 -7.61898E-01
  -1.92694E+00 -2.51272E+00 -2.95315E+00 -3.10623E+00 -3.36871E+00 -3.85065E+00 -4.43241E+00 -4.86429E+00 -5.18625E+00 -5.49240E+00
  -5.72929E+00 -5.84177E+00 -5.91923E+00 -6.03558E+00 -6.17647E+00 -6.32427E+00 -6.45922E+00 -6.62196E+00 -6.77709E+00 -6.84698E+00
  -6.82984E+00 -6.73609E+00 -6.60877E+00 -6.53041E+00 -6.47266E+00 -6.40676E+00 -6.37655E+00 -6.37195E+00 -6.33312E+00 -6.27699E+00
  -6.18929E+00 -6.09520E+00 -6.01969E+00 -5.95604E+00 -5.91582E+00 -5.91946E+00 -5.92148E+00 -5.94569E+00 -5.99258E+00 -6.05295E+00
  -6.12482E+00 -6.20454E+00 -6.28555E+00 -6.36261E+00 -6.42987E+00 -6.48203E+00 -6.51455E+00 -6.52260E+00 -6.50057E+00 -6.44520E+00
  -6.35521E+00 -6.22906E+00 -6.06611E+00 -5.86570E+00 -5.62822E+00 -5.35594E+00 -5.05270E+00 -4.72275E+00 -4.37014E+00 -3.99905E+00
  -3.61468E+00 -3.22345E+00 -2.83211E+00 -2.44660E+00 -2.07175E+00 -1.71179E+00 -1.37098E+00 -1.05314E+00 -7.60503E-01 -4.92219E-01
  -2.41797E-01  3.38792E-03  2.03642E-01  3.65135E-01  5.92312E-01  8.53078E-01  9.52859E-01  6.94136E-01  1.67870E-01 -2.69107E-01
  -5.09751E-01 -7.19344E-01 -9.01133E-01 -7.89366E-01 -4.92935E-01 -3.17556E-01 -3.14033E-01 -5.50486E-01 -8.42705E-01 -1.14117E+00
  -1.52732E+00 -1.82841E+00 -2.14400E+00 -2.56244E+00 -2.95941E+00 -3.34474E+00 -3.72584E+00 -4.10229E+00 -4.47137E+00 -4.83003E+00
  -5.17539E+00 -5.50451E+00 -5.81389E+00 -6.09965E+00 -6.35810E+00 -6.58616E+00 -6.78108E+00 -6.93984E+00 -7.05877E+00 -7.13392E+00
  -7.16165E+00 -7.13879E+00 -7.06231E+00 -6.92895E+00 -6.73534E+00 -6.47882E+00 -6.15814E+00 -5.77367E+00 -5.32720E+00 -4.82194E+00
  -4.26301E+00 -3.65820E+00 -3.01830E+00 -2.35663E+00 -1.68832E+00 -1.02979E+00 -3.98636E-01  1.86655E-01  7.07562E-01  1.14689E+00
   1.49002E+00  1.72549E+00  1.84516E+00  1.84439E+00  1.72247E+00  1.48313E+00  1.13439E+00  6.87697E-01  1.56801E-01 -4.43072E-01
  -1.09563E+00 -1.78394E+00 -2.49129E+00 -3.20231E+00 -3.90375E+00 -4.58465E+00 -5.23605E+00 -5.85080E+00 -6.42380E+00 -6.95223E+00
  -7.43540E+00 -7.87405E+00 -8.26970E+00 -8.62433E+00 -8.94054E+00 -9.22166E+00 -9.47141E+00 -9.69333E+00 -9.89041E+00 -1.00652E+01
  -1.02204E+01 -1.03587E+01 -1.04825E+01 -1.05939E+01 -1.06942E+01 -1.07845E+01 -1.08662E+01 -1.09405E+01 -1.10087E+01 -1.10715E+01
  -1.11290E+01 -1.11818E+01 -1.12305E+01 -1.12759E+01 -1.13184E+01 -1.13581E+01 -1.13950E+01 -1.14293E+01 -1.14614E+01 -1.14919E+01
  -1.15209E+01 -1.15481E+01 -1.15736E+01 -1.15974E+01 -1.16202E+01 -1.16421E+01 -1.16629E+01 -1.16825E+01 -1.17009E+01 -1.17184E+01
  -1.17353E+01 -1.17516E+01 -1.17672E+01 -1.17818E+01 -1.17955E+01 -1.18088E+01 -1.18218E+01 -1.18344E+01 -1.18463E+01 -1.18574E+01
  -1.18680E+01 -1.18785E+01 -1.18887E+01 -1.18986E+01 -1.19079E+01 -1.19166E+01 -1.19250E+01 -1.19335E+01 -1.19418E+01 -1.19496E+01
  -1.19570E+01 -1.19640E+01 -1.19710E+01 -1.19781E+01 -1.19849E+01 -1.19914E+01 -1.19974E+01 -1.20033E+01 -1.20093E+01 -1.20154E+01
  -1.20213E+01 -1.20267E+01 -1.20319E+01 -1.20372E+01 -1.20427E+01 -1.20482E+01 -1.20534E+01 -1.20583E+01
 NY background values follow
     2.049E+01    2.035E+01    2.021E+01    2.007E+01    1.993E+01    1.979E+01    1.965E+01    1.951E+01    1.937E+01    1.923E+01
     1.909E+01    1.895E+01    1.881E+01    1.867E+01    1.853E+01    1.839E+01    1.825E+01    1.811E+01    1.797E+01    1.783E+01
     1.769E+01    1.755E+01    1.741E+01    1.727E+01    1.713E+01    1.700E+01    1.686E+01    1.672E+01    1.658E+01    1.644E+01
     1.630E+01    1.616E+01    1.602E+01    1.588E+01    1.574E+01    1.560E+01    1.547E+01    1.533E+01    1.519E+01    1.505E+01
     1.491E+01    1.477E+01    1.464E+01    1.450E+01    1.436E+01    1.422E+01    1.409E+01    1.395E+01    1.381E+01    1.367E+01
     1.354E+01    1.340E+01    1.326E+01    1.313E+01    1.299E+01    1.285E+01    1.272E+01    1.258E+01    1.245E+01    1.231E+01
     1.217E+01    1.204E+01    1.190E+01    1.177E+01    1.163E+01    1.150E+01    1.137E+01    1.123E+01    1.110E+01    1.096E+01
     1.083E+01    1.070E+01    1.056E+01    1.043E+01    1.030E+01    1.017E+01    1.004E+01    9.903E+00    9.772E+00    9.640E+00
     9.509E+00    9.378E+00    9.248E+00    9.118E+00    8.988E+00    8.858E+00    8.728E+00    8.599E+00    8.470E+00    8.342E+00
     8.214E+00    8.085E+00    7.958E+00    7.830E+00    7.703E+00    7.576E+00    7.450E+00    7.324E+00    7.198E+00    7.072E+00
     6.947E+00    6.822E+00    6.697E+00    6.573E+00    6.449E+00    6.325E+00    6.202E+00    6.079E+00    5.956E+00    5.834E+00
     5.712E+00    5.590E+00    5.468E+00    5.347E+00    5.226E+00    5.106E+00    4.985E+00    4.866E+00    4.746E+00    4.627E+00
     4.508E+00    4.389E+00    4.271E+00    4.153E+00    4.036E+00    3.919E+00    3.802E+00    3.685E+00    3.569E+00    3.453E+00
     3.338E+00    3.222E+00    3.108E+00    2.993E+00    2.879E+00    2.765E+00    2.652E+00    2.539E+00    2.426E+00    2.314E+00
     2.201E+00    2.090E+00    1.979E+00    1.868E+00    1.757E+00    1.647E+00    1.537E+00    1.427E+00    1.318E+00    1.210E+00
     1.101E+00    9.935E-01    8.860E-01    7.788E-01    6.721E-01    5.657E-01    4.598E-01    3.542E-01    2.491E-01    1.444E-01
     4.006E-02   -6.384E-02   -1.673E-01   -2.704E-01   -3.730E-01   -4.753E-01   -5.771E-01   -6.784E-01   -7.793E-01   -8.798E-01
    -9.799E-01   -1.080E+00   -1.179E+00   -1.277E+00   -1.376E+00   -1.473E+00   -1.571E+00   -1.668E+00   -1.764E+00   -1.860E+00
    -1.956E+00   -2.051E+00   -2.145E+00   -2.240E+00   -2.333E+00   -2.426E+00   -2.519E+00   -2.611E+00   -2.703E+00   -2.794E+00
    -2.885E+00   -2.976E+00   -3.066E+00   -3.155E+00   -3.244E+00   -3.333E+00   -3.421E+00   -3.508E+00   -3.595E+00   -3.682E+00
    -3.768E+00   -3.854E+00   -3.939E+00   -4.024E+00   -4.108E+00   -4.192E+00   -4.276E+00   -4.359E+00   -4.441E+00   -4.524E+00
    -4.605E+00   -4.686E+00   -4.767E+00   -4.847E+00   -4.927E+00   -5.007E+00   -5.085E+00   -5.164E+00   -5.242E+00   -5.319E+00
    -5.397E+00   -5.473E+00   -5.549E+00   -5.625E+00   -5.701E+00   -5.775E+00   -5.850E+00   -5.924E+00   -5.997E+00   -6.070E+00
    -6.143E+00   -6.215E+00   -6.287E+00   -6.358E+00   -6.429E+00   -6.499E+00   -6.569E+00   -6.639E+00   -6.708E+00   -6.777E+00
    -6.845E+00   -6.912E+00   -6.980E+00   -7.046E+00   -7.113E+00   -7.179E+00   -7.244E+00   -7.309E+00   -7.374E+00   -7.438E+00
    -7.502E+00   -7.565E+00   -7.628E+00   -7.690E+00   -7.752E+00   -7.813E+00   -7.874E+00   -7.935E+00   -7.995E+00   -8.055E+00
    -8.114E+00   -8.173E+00   -8.231E+00   -8.289E+00   -8.346E+00   -8.403E+00   -8.460E+00   -8.516E+00   -8.572E+00   -8.627E+00
    -8.681E+00   -8.736E+00   -8.790E+00   -8.843E+00   -8.896E+00   -8.948E+00   -9.001E+00   -9.052E+00   -9.103E+00   -9.154E+00
    -9.204E+00   -9.254E+00   -9.304E+00   -9.353E+00   -9.401E+00   -9.449E+00   -9.497E+00   -9.544E+00   -9.591E+00   -9.638E+00
    -9.684E+00   -9.729E+00   -9.775E+00   -9.819E+00   -9.864E+00   -9.908E+00   -9.951E+00   -9.994E+00   -1.004E+01   -1.008E+01
    -1.012E+01   -1.016E+01   -1.020E+01   -1.024E+01   -1.028E+01   -1.032E+01   -1.036E+01   -1.040E+01   -1.044E+01   -1.048E+01
    -1.052E+01   -1.055E+01   -1.059E+01   -1.063E+01   -1.066E+01   -1.070E+01   -1.074E+01   -1.077E+01   -1.081E+01   -1.084E+01
    -1.087E+01   -1.091E+01   -1.094E+01   -1.097E+01   -1.101E+01   -1.104E+01   -1.107E+01   -1.110E+01   -1.113E+01   -1.116E+01
    -1.119E+01   -1.122E+01   -1.125E+01   -1.128E+01   -1.131E+01   -1.134E+01   -1.137E+01   -1.139E+01   -1.142E+01   -1.145E+01
    -1.147E+01   -1.150E+01   -1.153E+01   -1.155E+01   -1.158E+01   -1.160E+01   -1.163E+01   -1.165E+01   -1.167E+01   -1.170E+01
    -1.172E+01   -1.174E+01   -1.177E+01   -1.179E+01   -1.181E+01   -1.183E+01   -1.186E+01   -1.188E+01   -1.190E+01   -1.192E+01
    -1.194E+01   -1.196E+01   -1.198E+01   -1.200E+01   -1.202E+01   -1.203E+01   -1.205E+01   -1.207E+01   -1.209E+01   -1.211E+01
    -1.212E+01   -1.214E+01   -1.216E+01   -1.217E+01   -1.219E+01   -1.221E+01   -1.222E+01   -1.224E+01   -1.225E+01   -1.227E+01
    -1.228E+01   -1.230E+01   -1.231E+01   -1.232E+01   -1.234E+01   -1.235E+01   -1.236E+01   -1.238E+01   -1.239E+01   -1.240E+01
    -1.241E+01   -1.242E+01   -1.244E+01   -1.245E+01   -1.246E+01   -1.247E+01   -1.248E+01   -1.249E+01   -1.250E+01   -1.251E+01
    -1.252E+01   -1.253E+01   -1.254E+01   -1.254E+01   -1.255E+01   -1.256E+01   -1.257E+01   -1.258E+01   -1.259E+01   -1.259E+01
    -1.260E+01   -1.261E+01   -1.261E+01   -1.262E+01   -1.263E+01   -1.263E+01   -1.264E+01   -1.264E+01   -1.265E+01   -1.265E+01
    -1.266E+01   -1.266E+01   -1.267E+01   -1.267E+01   -1.268E+01   -1.268E+01   -1.269E+01   -1.269E+01   -1.269E+01   -1.270E+01
    -1.270E+01   -1.270E+01   -1.271E+01   -1.271E+01   -1.271E+01   -1.271E+01   -1.272E+01   -1.272E+01   -1.272E+01   -1.272E+01
    -1.272E+01   -1.273E+01   -1.273E+01   -1.273E+01   -1.273E+01   -1.273E+01   -1.273E+01   -1.273E+01   -1.273E+01   -1.273E+01
    -1.273E+01   -1.274E+01   -1.274E+01   -1.274E+01   -1.274E+01   -1.274E+01   -1.274E+01   -1.274E+01   -1.274E+01   -1.274E+01
    -1.273E+01   -1.273E+01   -1.273E+01   -1.273E+01   -1.273E+01   -1.273E+01   -1.273E+01   -1.273E+01   -1.273E+01   -1.273E+01
    -1.273E+01   -1.273E+01   -1.273E+01   -1.272E+01   -1.272E+01   -1.272E+01   -1.272E+01   -1.272E+01   -1.272E+01   -1.272E+01
    -1.271E+01   -1.271E+01   -1.271E+01   -1.271E+01   -1.271E+01   -1.271E+01   -1.271E+01   -1.270E+01   -1.270E+01   -1.270E+01
    -1.270E+01   -1.270E+01   -1.270E+01   -1.270E+01   -1.269E+01   -1.269E+01   -1.269E+01   -1.269E+01
 Asp      Conc. = 9.84E+01
