 LCModel (Version 6.3-1L) Copyright: S.W. Provencher.          Ref.: Magn. Reson. Med. 30:672-679 (1993).                
 Slice#2 Row#11 Col#14  K_02_press_1_raw_act
 36 lines in following concentration table = NCONC+1
    Conc.  %SD /Cr+PCr  Metabolite                                         
 2.66E+03  33%  63.452 Ala                                                 
    4.676  66%   0.111 Asp                                                 
    0.000 999%   0.000 Cr                                                  
   41.955  72%   1.000 PCr                                                 
    2.806  66% 6.7E-02 GABA                                                
    2.807  66% 6.7E-02 Glc                                                 
    0.000 999%   0.000 Gln                                                 
  164.209 196%   3.914 Glu                                                 
    0.000 999%   0.000 GPC                                                 
   11.267  94%   0.269 PCh                                                 
    0.000 999%   0.000 GSH                                                 
  129.194  95%   3.079 Ins                                                 
    0.000 999%   0.000 Lac                                                 
   17.768 222%   0.424 NAA                                                 
    0.000 999%   0.000 NAAG                                                
    0.936  66% 2.2E-02 Scyllo                                              
    4.679  66%   0.112 Tau                                                 
    4.994 255%   0.119 -CrCH2                                              
   11.267  94%   0.269 GPC+PCh                                             
   17.768 222%   0.424 NAA+NAAG                                            
   41.955  72%   1.000 Cr+PCr                                              
  164.209 196%   3.914 Glu+Gln                                             
 2.06E+04  11% 492.004 Lip13a                                              
    0.000 999%   0.000 Lip13b                                              
 2.66E+03  20%  63.508 Lip09                                               
 1.20E+03  27%  28.717 MM09                                                
    0.000 999%   0.000 Lip20                                               
  103.391 134%   2.464 MM20                                                
  439.818 120%  10.483 MM12                                                
 9.70E+03  15% 231.177+MM14                                                
 4.49E+03  23% 106.971 MM17                                                
 2.06E+04  11% 492.004 Lip13a+Lip13b                                       
 3.08E+04   6% 733.664 MM14+Lip13a+Lip13b+MM12                             
 3.87E+03  16%  92.225 MM09+Lip09                                          
  103.391 134%   2.464 MM20+Lip20                                          
   6 lines in following misc. output table
  FWHM = 0.138 ppm    S/N =  33                                            
  Data shift = 0.214 ppm                                                   
  Ph: -92 deg     -36.3 deg/ppm                                            
  alphaB,S = 8.5E+01,   1.6E+02                                            
    7 spline knots.   Ns = 9(2)                                            
  (11) 2 infls.   ( 7) 1 extrs.                                            
  498 points on ppm-axis = NY
      4.000000     3.992357     3.984714     3.977070     3.969427     3.961784     3.954141     3.946497     3.938854     3.931211
      3.923568     3.915925     3.908281     3.900638     3.892995     3.885352     3.877708     3.870065     3.862422     3.854779
      3.847136     3.839492     3.831849     3.824206     3.816563     3.808919     3.801276     3.793633     3.785990     3.778347
      3.770703     3.763060     3.755417     3.747774     3.740130     3.732487     3.724844     3.717201     3.709558     3.701914
      3.694271     3.686628     3.678985     3.671341     3.663698     3.656055     3.648412     3.640769     3.633125     3.625482
      3.617839     3.610196     3.602552     3.594909     3.587266     3.579623     3.571980     3.564336     3.556693     3.549050
      3.541407     3.533763     3.526120     3.518477     3.510834     3.503191     3.495547     3.487904     3.480261     3.472618
      3.464974     3.457331     3.449688     3.442045     3.434402     3.426758     3.419115     3.411472     3.403829     3.396185
      3.388542     3.380899     3.373256     3.365613     3.357969     3.350326     3.342683     3.335040     3.327396     3.319753
      3.312110     3.304467     3.296824     3.289180     3.281537     3.273894     3.266251     3.258607     3.250964     3.243321
      3.235678     3.228034     3.220391     3.212748     3.205105     3.197462     3.189818     3.182175     3.174532     3.166889
      3.159245     3.151602     3.143959     3.136316     3.128673     3.121029     3.113386     3.105743     3.098100     3.090456
      3.082813     3.075170     3.067527     3.059884     3.052240     3.044597     3.036954     3.029311     3.021667     3.014024
      3.006381     2.998738     2.991095     2.983451     2.975808     2.968165     2.960522     2.952878     2.945235     2.937592
      2.929949     2.922306     2.914662     2.907019     2.899376     2.891733     2.884089     2.876446     2.868803     2.861160
      2.853517     2.845873     2.838230     2.830587     2.822944     2.815300     2.807657     2.800014     2.792371     2.784728
      2.777084     2.769441     2.761798     2.754155     2.746511     2.738868     2.731225     2.723582     2.715939     2.708295
      2.700652     2.693009     2.685366     2.677722     2.670079     2.662436     2.654793     2.647150     2.639506     2.631863
      2.624220     2.616577     2.608933     2.601290     2.593647     2.586004     2.578361     2.570717     2.563074     2.555431
      2.547788     2.540144     2.532501     2.524858     2.517215     2.509572     2.501928     2.494285     2.486642     2.478999
      2.471355     2.463712     2.456069     2.448426     2.440783     2.433139     2.425496     2.417853     2.410210     2.402566
      2.394923     2.387280     2.379637     2.371994     2.364350     2.356707     2.349064     2.341421     2.333777     2.326134
      2.318491     2.310848     2.303205     2.295561     2.287918     2.280275     2.272632     2.264988     2.257345     2.249702
      2.242059     2.234416     2.226772     2.219129     2.211486     2.203843     2.196199     2.188556     2.180913     2.173270
      2.165627     2.157983     2.150340     2.142697     2.135054     2.127410     2.119767     2.112124     2.104481     2.096838
      2.089194     2.081551     2.073908     2.066265     2.058621     2.050978     2.043335     2.035692     2.028049     2.020405
      2.012762     2.005119     1.997476     1.989833     1.982190     1.974546     1.966903     1.959260     1.951617     1.943974
      1.936331     1.928688     1.921045     1.913402     1.905759     1.898115     1.890472     1.882829     1.875186     1.867543
      1.859900     1.852257     1.844614     1.836971     1.829327     1.821684     1.814041     1.806398     1.798755     1.791112
      1.783469     1.775826     1.768183     1.760540     1.752896     1.745253     1.737610     1.729967     1.722324     1.714681
      1.707038     1.699395     1.691752     1.684108     1.676465     1.668822     1.661179     1.653536     1.645893     1.638250
      1.630607     1.622964     1.615321     1.607677     1.600034     1.592391     1.584748     1.577105     1.569462     1.561819
      1.554176     1.546533     1.538890     1.531246     1.523603     1.515960     1.508317     1.500674     1.493031     1.485388
      1.477745     1.470102     1.462458     1.454815     1.447172     1.439529     1.431886     1.424243     1.416600     1.408957
      1.401314     1.393671     1.386027     1.378384     1.370741     1.363098     1.355455     1.347812     1.340169     1.332526
      1.324883     1.317240     1.309596     1.301953     1.294310     1.286667     1.279024     1.271381     1.263738     1.256095
      1.248452     1.240808     1.233165     1.225522     1.217879     1.210236     1.202593     1.194950     1.187307     1.179664
      1.172021     1.164377     1.156734     1.149091     1.141448     1.133805     1.126162     1.118519     1.110876     1.103233
      1.095590     1.087946     1.080303     1.072660     1.065017     1.057374     1.049731     1.042088     1.034445     1.026802
      1.019158     1.011515     1.003872     0.996229     0.988586     0.980943     0.973300     0.965657     0.958014     0.950371
      0.942727     0.935084     0.927441     0.919798     0.912155     0.904512     0.896869     0.889226     0.881583     0.873940
      0.866296     0.858653     0.851010     0.843367     0.835724     0.828081     0.820438     0.812795     0.805152     0.797508
      0.789865     0.782222     0.774579     0.766936     0.759293     0.751650     0.744007     0.736364     0.728721     0.721077
      0.713434     0.705791     0.698148     0.690505     0.682862     0.675219     0.667576     0.659933     0.652290     0.644646
      0.637003     0.629360     0.621717     0.614074     0.606431     0.598788     0.591145     0.583502     0.575858     0.568215
      0.560572     0.552929     0.545286     0.537643     0.530000     0.522357     0.514714     0.507071     0.499427     0.491784
      0.484141     0.476498     0.468855     0.461212     0.453569     0.445925     0.438282     0.430639     0.422996     0.415353
      0.407710     0.400067     0.392424     0.384780     0.377137     0.369494     0.361851     0.354208     0.346565     0.338922
      0.331278     0.323635     0.315992     0.308349     0.300706     0.293063     0.285420     0.277777     0.270133     0.262490
      0.254847     0.247204     0.239561     0.231918     0.224275     0.216631     0.208988     0.201345
 NY phased data points follow
   4.20222E+00  5.86128E+00  5.33857E+00  4.68328E+00  5.74932E+00  4.16523E+00  3.98037E+00  4.36413E+00  5.92950E+00  4.66502E+00
   4.85194E+00  5.68944E+00  5.07433E+00  5.43568E+00  5.64419E+00  7.03741E+00  5.60186E+00  2.10747E+00  5.60616E+00  6.38578E+00
   4.03242E+00  4.06620E+00  4.44681E+00  5.92470E+00  5.49808E+00  4.15922E+00  4.37317E+00  4.86106E+00  5.30370E+00  5.00399E+00
   4.67869E+00  6.01780E+00  6.08540E+00  5.31183E+00  4.95640E+00  5.07716E+00  4.39860E+00  5.49434E+00  4.07412E+00  3.89936E+00
   4.45833E+00  4.51589E+00  4.79220E+00  4.66780E+00  4.99982E+00  3.88717E+00  5.55449E+00  4.46221E+00  5.73599E+00  3.93773E+00
   3.52583E+00  4.42035E+00  6.20296E+00  6.31831E+00  4.59856E+00  3.06754E+00  4.58851E+00  5.25180E+00  5.04804E+00  5.21961E+00
   5.64468E+00  5.07324E+00  7.98250E+00  5.10677E+00  4.04800E+00  5.76006E+00  4.66504E+00  4.94253E+00  5.28481E+00  4.78133E+00
   5.46552E+00  5.15816E+00  5.27531E+00  4.24172E+00  5.87402E+00  8.06201E+00  9.46682E+00  8.43127E+00  6.30741E+00  8.95732E+00
   6.18919E+00  5.16291E+00  6.52792E+00  5.75675E+00  5.14965E+00  6.05331E+00  5.27356E+00  5.78384E+00  5.05619E+00  5.97402E+00
   5.92821E+00  6.31861E+00  5.02217E+00  5.86075E+00  4.80617E+00  5.21521E+00  6.83223E+00  5.05564E+00  6.60311E+00  7.09878E+00
   7.25185E+00  9.01090E+00  7.71243E+00  6.60951E+00  7.11968E+00  6.25688E+00  3.69283E+00  4.43619E+00  6.00449E+00  5.53662E+00
   5.91307E+00  5.85871E+00  6.20441E+00  7.15198E+00  6.28092E+00  7.11320E+00  6.17521E+00  6.46756E+00  5.45245E+00  7.37019E+00
   6.03159E+00  4.22316E+00  6.92863E+00  4.84869E+00  5.97471E+00  7.17600E+00  7.23814E+00  7.41090E+00  5.77628E+00  5.80160E+00
   4.58983E+00  6.74466E+00  7.44209E+00  7.46545E+00  7.36130E+00  6.42990E+00  6.45409E+00  7.34807E+00  7.10003E+00  7.65440E+00
   6.93196E+00  8.31536E+00  5.31838E+00  6.10852E+00  7.65394E+00  6.30433E+00  5.56622E+00  6.76467E+00  6.15981E+00  5.83676E+00
   5.06698E+00  7.12047E+00  6.82398E+00  5.51799E+00  6.69525E+00  5.90974E+00  6.63850E+00  6.05301E+00  6.79805E+00  7.91978E+00
   3.68663E+00  4.94110E+00  6.64446E+00  6.34804E+00  6.44207E+00  7.32983E+00  6.58506E+00  7.03630E+00  7.22322E+00  7.31983E+00
   6.24508E+00  7.28536E+00  6.33230E+00  4.40844E+00  5.92694E+00  5.67298E+00  5.00920E+00  6.38854E+00  7.44887E+00  6.72715E+00
   6.82262E+00  6.49915E+00  6.06124E+00  6.62441E+00  6.46118E+00  7.16267E+00  6.35920E+00  4.66288E+00  7.67851E+00  6.96437E+00
   6.97204E+00  7.33716E+00  6.35093E+00  6.61117E+00  9.26752E+00  4.95087E+00  5.93711E+00  7.15283E+00  5.52058E+00  7.23918E+00
   7.04274E+00  6.32186E+00  8.82300E+00  5.60627E+00  6.12481E+00  7.04491E+00  6.60242E+00  6.53820E+00  7.11826E+00  6.92761E+00
   6.74919E+00  6.63333E+00  8.63437E+00  7.05388E+00  7.60326E+00  6.65170E+00  6.77926E+00  6.14858E+00  7.01103E+00  7.76786E+00
   5.46469E+00  7.03044E+00  7.99436E+00  5.23197E+00  7.44066E+00  7.61924E+00  5.41374E+00  7.09663E+00  5.59201E+00  8.83750E+00
   5.59481E+00  5.34216E+00  7.80151E+00  1.06208E+01  1.12339E+01  8.82565E+00  9.88789E+00  7.65178E+00  6.21814E+00  6.50671E+00
   7.89568E+00  8.36103E+00  7.67416E+00  8.37100E+00  8.17982E+00  6.67282E+00  9.80602E+00  8.02837E+00  8.33662E+00  9.38418E+00
   9.59853E+00  1.11417E+01  8.14800E+00  9.03118E+00  9.34314E+00  8.58836E+00  8.66029E+00  1.02095E+01  9.53626E+00  9.32538E+00
   8.35648E+00  1.00217E+01  1.14193E+01  8.21339E+00  9.61970E+00  1.05985E+01  1.06919E+01  1.13029E+01  9.84194E+00  1.19094E+01
   1.12569E+01  1.17411E+01  9.97343E+00  9.50790E+00  1.15877E+01  1.15484E+01  1.27993E+01  1.37902E+01  1.25320E+01  1.29408E+01
   1.22871E+01  1.30056E+01  1.50259E+01  1.42497E+01  1.39571E+01  1.47099E+01  1.46123E+01  1.50746E+01  1.76983E+01  1.58672E+01
   1.84659E+01  1.83420E+01  1.77681E+01  1.93680E+01  2.18480E+01  2.34404E+01  2.65651E+01  2.43097E+01  2.69988E+01  2.93576E+01
   3.31507E+01  3.29815E+01  3.74920E+01  3.94532E+01  4.17966E+01  4.32815E+01  4.75205E+01  4.99534E+01  5.39497E+01  5.62198E+01
   5.84354E+01  5.93414E+01  6.23191E+01  6.49854E+01  6.96070E+01  7.05858E+01  7.29468E+01  7.51644E+01  7.70865E+01  7.80972E+01
   8.19725E+01  8.38033E+01  8.73200E+01  8.85518E+01  8.76400E+01  9.09643E+01  9.21707E+01  8.98281E+01  9.33591E+01  9.11423E+01
   9.12798E+01  9.04236E+01  9.00743E+01  8.94594E+01  8.98529E+01  8.77112E+01  8.90973E+01  8.73511E+01  8.67164E+01  8.55478E+01
   8.47833E+01  8.39541E+01  8.40625E+01  8.18890E+01  7.95853E+01  8.04470E+01  8.05975E+01  7.90061E+01  7.79146E+01  7.62419E+01
   7.50581E+01  7.47105E+01  7.21710E+01  7.10243E+01  6.95163E+01  6.82469E+01  6.82498E+01  6.68909E+01  6.65543E+01  6.36367E+01
   6.26307E+01  6.21824E+01  6.17394E+01  6.08628E+01  5.94363E+01  5.95990E+01  5.62973E+01  5.78983E+01  5.41767E+01  5.37643E+01
   5.34501E+01  5.38642E+01  5.09223E+01  5.02278E+01  4.97684E+01  4.87287E+01  4.92320E+01  4.66730E+01  4.50609E+01  4.46577E+01
   4.48976E+01  4.30221E+01  4.29191E+01  4.28004E+01  4.03940E+01  4.01776E+01  4.02505E+01  3.80843E+01  3.94253E+01  3.82143E+01
   3.65871E+01  3.42201E+01  3.36853E+01  3.25843E+01  3.43106E+01  3.37582E+01  3.22102E+01  3.11975E+01  2.96163E+01  3.01881E+01
   2.82048E+01  2.87024E+01  3.04642E+01  2.63581E+01  2.72739E+01  2.58048E+01  2.48990E+01  2.32014E+01  2.43239E+01  2.36185E+01
   2.38950E+01  2.14575E+01  2.24591E+01  2.06917E+01  2.01700E+01  1.87579E+01  1.79134E+01  1.90006E+01  1.67944E+01  1.84145E+01
   1.78000E+01  1.76375E+01  1.45011E+01  1.56747E+01  1.48768E+01  1.46236E+01  1.55812E+01  1.33258E+01  1.31654E+01  1.15892E+01
   1.28652E+01  1.34176E+01  1.11654E+01  1.14318E+01  1.13689E+01  1.08999E+01  8.07689E+00  1.10835E+01  1.02248E+01  9.14359E+00
   8.67566E+00  7.26247E+00  8.91089E+00  7.79850E+00  7.55159E+00  5.59737E+00  7.14042E+00  5.27212E+00  6.22401E+00  5.29699E+00
   5.44842E+00  6.12501E+00  6.77018E+00  4.80679E+00  5.27222E+00  3.97910E+00  5.80731E+00  4.71480E+00  2.92660E+00  6.15837E+00
   2.70385E+00  4.32295E+00  2.95883E+00  4.12514E+00  3.95129E+00  2.84291E+00  3.06818E+00  1.73790E+00  2.67339E+00  4.08616E+00
   3.49871E+00  2.46233E+00  3.37608E+00  1.91544E+00  3.21074E+00  1.38759E+00  2.51471E+00  1.37798E+00  2.52740E+00  5.63851E-01
   9.56251E-01  1.83352E+00  1.80626E+00  1.60071E+00  2.15130E+00  3.61250E+00  1.73391E+00  5.46054E-01  9.76987E-01  1.15915E+00
   1.90446E+00  1.78552E+00  2.42133E+00  2.34280E+00  5.32927E-01  1.75810E+00  1.44420E+00  7.79233E-01
 NY points of the fit to the data follow
   4.68821E+00  4.71616E+00  4.73352E+00  4.75555E+00  4.76743E+00  4.78966E+00  4.82593E+00  4.92108E+00  4.98511E+00  5.04706E+00
   5.10703E+00  5.13805E+00  5.16576E+00  5.12505E+00  5.08476E+00  4.99310E+00  5.02671E+00  4.90386E+00  5.04065E+00  4.94912E+00
   5.21327E+00  5.09077E+00  5.43479E+00  5.16456E+00  5.55148E+00  5.06232E+00  5.44336E+00  4.77649E+00  5.22582E+00  4.44040E+00
   5.05132E+00  4.22941E+00  5.01753E+00  4.18152E+00  5.06294E+00  4.23981E+00  5.15381E+00  4.29856E+00  5.17845E+00  4.36589E+00
   5.19266E+00  4.47720E+00  5.23057E+00  4.67074E+00  5.38205E+00  4.97081E+00  5.54820E+00  5.24613E+00  5.65610E+00  5.38329E+00
   5.60918E+00  5.36620E+00  5.47298E+00  5.30118E+00  5.35274E+00  5.26943E+00  5.35338E+00  5.34723E+00  5.43590E+00  5.45938E+00
   5.53102E+00  5.55125E+00  5.60064E+00  5.59429E+00  5.63216E+00  5.61919E+00  5.65885E+00  5.64720E+00  5.69157E+00  5.68319E+00
   5.73218E+00  5.72371E+00  5.76740E+00  5.75472E+00  5.79080E+00  5.77552E+00  5.80423E+00  5.78786E+00  5.81068E+00  5.79501E+00
   5.81152E+00  5.79416E+00  5.80426E+00  5.78232E+00  5.78305E+00  5.76259E+00  5.76527E+00  5.74226E+00  5.74688E+00  5.72491E+00
   5.73692E+00  5.71841E+00  5.73981E+00  5.72610E+00  5.75864E+00  5.74790E+00  5.79038E+00  5.78605E+00  5.84655E+00  5.84495E+00
   5.92619E+00  5.92072E+00  6.01836E+00  5.99861E+00  6.10066E+00  6.06530E+00  6.16442E+00  6.11220E+00  6.20333E+00  6.15388E+00
   6.23155E+00  6.18016E+00  6.23837E+00  6.19843E+00  6.24022E+00  6.21288E+00  6.23347E+00  6.22934E+00  6.23197E+00  6.25288E+00
   6.24297E+00  6.30436E+00  6.28997E+00  6.39025E+00  6.37359E+00  6.50233E+00  6.48231E+00  6.61034E+00  6.57969E+00  6.69747E+00
   6.65559E+00  6.75272E+00  6.70112E+00  6.77276E+00  6.71393E+00  6.75547E+00  6.69490E+00  6.71500E+00  6.65524E+00  6.64821E+00
   6.59312E+00  6.56993E+00  6.52371E+00  6.49216E+00  6.45757E+00  6.42853E+00  6.40628E+00  6.38621E+00  6.37543E+00  6.36984E+00
   6.36514E+00  6.36299E+00  6.36056E+00  6.36026E+00  6.35918E+00  6.36003E+00  6.35985E+00  6.36159E+00  6.36198E+00  6.36459E+00
   6.36584E+00  6.36954E+00  6.37162E+00  6.37602E+00  6.37887E+00  6.38390E+00  6.38769E+00  6.39329E+00  6.39794E+00  6.40376E+00
   6.40910E+00  6.41513E+00  6.42139E+00  6.42767E+00  6.43497E+00  6.44133E+00  6.44970E+00  6.45630E+00  6.46569E+00  6.47307E+00
   6.48335E+00  6.49169E+00  6.50274E+00  6.51238E+00  6.52429E+00  6.53593E+00  6.54921E+00  6.56346E+00  6.57882E+00  6.59413E+00
   6.61076E+00  6.62747E+00  6.64238E+00  6.66001E+00  6.67354E+00  6.69257E+00  6.70704E+00  6.73057E+00  6.75535E+00  6.78040E+00
   6.80913E+00  6.83236E+00  6.86455E+00  6.88146E+00  6.90723E+00  6.91455E+00  6.94104E+00  6.94586E+00  6.97403E+00  6.97901E+00
   7.02072E+00  7.02469E+00  7.07812E+00  7.07484E+00  7.13345E+00  7.11816E+00  7.16648E+00  7.13792E+00  7.17805E+00  7.14685E+00
   7.18060E+00  7.15939E+00  7.19386E+00  7.19097E+00  7.22520E+00  7.24085E+00  7.28092E+00  7.31471E+00  7.35426E+00  7.40411E+00
   7.44871E+00  7.51308E+00  7.55958E+00  7.63244E+00  7.69116E+00  7.77102E+00  7.84002E+00  7.91518E+00  7.99503E+00  8.05715E+00
   8.13709E+00  8.18532E+00  8.27273E+00  8.31792E+00  8.40560E+00  8.45050E+00  8.54388E+00  8.59785E+00  8.69136E+00  8.75782E+00
   8.84962E+00  8.93039E+00  9.01434E+00  9.10870E+00  9.18706E+00  9.30223E+00  9.37342E+00  9.50823E+00  9.57232E+00  9.72217E+00
   9.77422E+00  9.93067E+00  9.97599E+00  1.01363E+01  1.01797E+01  1.03400E+01  1.03885E+01  1.05485E+01  1.06057E+01  1.07652E+01
   1.08413E+01  1.10047E+01  1.11006E+01  1.12703E+01  1.13956E+01  1.15801E+01  1.17407E+01  1.19492E+01  1.21532E+01  1.23965E+01
   1.26517E+01  1.29433E+01  1.32623E+01  1.36186E+01  1.40124E+01  1.44507E+01  1.49408E+01  1.54872E+01  1.61021E+01  1.67909E+01
   1.75666E+01  1.84367E+01  1.94143E+01  2.05074E+01  2.17273E+01  2.30816E+01  2.45773E+01  2.62188E+01  2.80075E+01  2.99425E+01
   3.20185E+01  3.42282E+01  3.65596E+01  3.90002E+01  4.15343E+01  4.41486E+01  4.68323E+01  4.95888E+01  5.24572E+01  5.54581E+01
   5.81556E+01  6.09564E+01  6.34498E+01  6.60889E+01  6.83249E+01  7.07280E+01  7.26552E+01  7.51604E+01  7.71296E+01  7.95740E+01
   8.15254E+01  8.39942E+01  8.56926E+01  8.78185E+01  8.90063E+01  9.04802E+01  9.10373E+01  9.15396E+01  9.15549E+01  9.14422E+01
   9.13033E+01  9.06840E+01  9.06749E+01  8.96459E+01  8.98695E+01  8.83145E+01  8.86863E+01  8.68393E+01  8.72181E+01  8.50057E+01
   8.54547E+01  8.32230E+01  8.36738E+01  8.14700E+01  8.17856E+01  7.98739E+01  8.00641E+01  7.82470E+01  7.80132E+01  7.63040E+01
   7.55373E+01  7.37681E+01  7.26629E+01  7.10659E+01  6.98652E+01  6.85345E+01  6.74012E+01  6.64227E+01  6.55123E+01  6.46275E+01
   6.37433E+01  6.28438E+01  6.19186E+01  6.09622E+01  5.99718E+01  5.89483E+01  5.78944E+01  5.68150E+01  5.57166E+01  5.46068E+01
   5.34938E+01  5.23864E+01  5.12928E+01  5.02215E+01  4.91794E+01  4.81729E+01  4.72064E+01  4.62833E+01  4.54048E+01  4.45704E+01
   4.37778E+01  4.30233E+01  4.23013E+01  4.16057E+01  4.09289E+01  4.02635E+01  3.96019E+01  3.89372E+01  3.82631E+01  3.75750E+01
   3.68692E+01  3.61442E+01  3.53997E+01  3.46375E+01  3.38603E+01  3.30724E+01  3.22786E+01  3.14846E+01  3.06957E+01  2.99175E+01
   2.91545E+01  2.84109E+01  2.76895E+01  2.69924E+01  2.63202E+01  2.56728E+01  2.50490E+01  2.44470E+01  2.38639E+01  2.32971E+01
   2.27432E+01  2.21993E+01  2.16621E+01  2.11291E+01  2.05979E+01  2.00667E+01  1.95341E+01  1.89994E+01  1.84621E+01  1.79227E+01
   1.73814E+01  1.68396E+01  1.62981E+01  1.57587E+01  1.52227E+01  1.46919E+01  1.41679E+01  1.36524E+01  1.31467E+01  1.26525E+01
   1.21706E+01  1.17025E+01  1.12487E+01  1.08101E+01  1.03870E+01  9.97987E+00  9.58871E+00  9.21369E+00  8.85450E+00  8.51107E+00
   8.18288E+00  7.86969E+00  7.57084E+00  7.28599E+00  7.01440E+00  6.75566E+00  6.50901E+00  6.27402E+00  6.04994E+00  5.83635E+00
   5.63253E+00  5.43810E+00  5.25237E+00  5.07500E+00  4.90536E+00  4.74315E+00  4.58779E+00  4.43904E+00  4.29636E+00  4.15955E+00
   4.02812E+00  3.90191E+00  3.78048E+00  3.66370E+00  3.55117E+00  3.44281E+00  3.33823E+00  3.23738E+00  3.13990E+00  3.04578E+00
   2.95469E+00  2.86663E+00  2.78128E+00  2.69867E+00  2.61851E+00  2.54083E+00  2.46537E+00  2.39217E+00  2.32099E+00  2.25188E+00
   2.18460E+00  2.11923E+00  2.05553E+00  1.99360E+00  1.93320E+00  1.87444E+00  1.81711E+00  1.76130E+00  1.70683E+00  1.65379E+00
   1.60201E+00  1.55159E+00  1.50238E+00  1.45448E+00  1.40776E+00  1.36234E+00  1.31809E+00  1.27518E+00
 NY background values follow
     1.114E+01    1.115E+01    1.117E+01    1.119E+01    1.121E+01    1.123E+01    1.125E+01    1.127E+01    1.129E+01    1.130E+01
     1.132E+01    1.134E+01    1.136E+01    1.137E+01    1.139E+01    1.141E+01    1.143E+01    1.144E+01    1.146E+01    1.148E+01
     1.149E+01    1.151E+01    1.152E+01    1.154E+01    1.155E+01    1.157E+01    1.158E+01    1.160E+01    1.161E+01    1.163E+01
     1.164E+01    1.166E+01    1.167E+01    1.169E+01    1.170E+01    1.171E+01    1.173E+01    1.174E+01    1.175E+01    1.177E+01
     1.178E+01    1.179E+01    1.180E+01    1.182E+01    1.183E+01    1.184E+01    1.185E+01    1.186E+01    1.187E+01    1.189E+01
     1.190E+01    1.191E+01    1.192E+01    1.193E+01    1.194E+01    1.195E+01    1.196E+01    1.197E+01    1.198E+01    1.199E+01
     1.200E+01    1.201E+01    1.202E+01    1.203E+01    1.203E+01    1.204E+01    1.205E+01    1.206E+01    1.207E+01    1.208E+01
     1.208E+01    1.209E+01    1.210E+01    1.211E+01    1.211E+01    1.212E+01    1.213E+01    1.213E+01    1.214E+01    1.215E+01
     1.215E+01    1.216E+01    1.216E+01    1.217E+01    1.218E+01    1.218E+01    1.219E+01    1.219E+01    1.220E+01    1.220E+01
     1.221E+01    1.221E+01    1.221E+01    1.222E+01    1.222E+01    1.223E+01    1.223E+01    1.223E+01    1.224E+01    1.224E+01
     1.224E+01    1.225E+01    1.225E+01    1.225E+01    1.225E+01    1.225E+01    1.226E+01    1.226E+01    1.226E+01    1.226E+01
     1.226E+01    1.226E+01    1.227E+01    1.227E+01    1.227E+01    1.227E+01    1.227E+01    1.227E+01    1.227E+01    1.227E+01
     1.227E+01    1.227E+01    1.227E+01    1.227E+01    1.227E+01    1.227E+01    1.227E+01    1.226E+01    1.226E+01    1.226E+01
     1.226E+01    1.226E+01    1.226E+01    1.225E+01    1.225E+01    1.225E+01    1.225E+01    1.224E+01    1.224E+01    1.224E+01
     1.224E+01    1.223E+01    1.223E+01    1.223E+01    1.222E+01    1.222E+01    1.221E+01    1.221E+01    1.221E+01    1.220E+01
     1.220E+01    1.219E+01    1.219E+01    1.218E+01    1.218E+01    1.217E+01    1.217E+01    1.216E+01    1.216E+01    1.215E+01
     1.214E+01    1.214E+01    1.213E+01    1.213E+01    1.212E+01    1.211E+01    1.211E+01    1.210E+01    1.209E+01    1.208E+01
     1.208E+01    1.207E+01    1.206E+01    1.205E+01    1.205E+01    1.204E+01    1.203E+01    1.202E+01    1.201E+01    1.201E+01
     1.200E+01    1.199E+01    1.198E+01    1.197E+01    1.196E+01    1.195E+01    1.194E+01    1.193E+01    1.192E+01    1.191E+01
     1.190E+01    1.189E+01    1.188E+01    1.187E+01    1.186E+01    1.185E+01    1.184E+01    1.183E+01    1.182E+01    1.181E+01
     1.180E+01    1.179E+01    1.177E+01    1.176E+01    1.175E+01    1.174E+01    1.173E+01    1.171E+01    1.170E+01    1.169E+01
     1.168E+01    1.167E+01    1.165E+01    1.164E+01    1.163E+01    1.161E+01    1.160E+01    1.159E+01    1.157E+01    1.156E+01
     1.155E+01    1.153E+01    1.152E+01    1.151E+01    1.149E+01    1.148E+01    1.146E+01    1.145E+01    1.143E+01    1.142E+01
     1.140E+01    1.139E+01    1.137E+01    1.136E+01    1.134E+01    1.133E+01    1.131E+01    1.130E+01    1.128E+01    1.127E+01
     1.125E+01    1.123E+01    1.122E+01    1.120E+01    1.119E+01    1.117E+01    1.115E+01    1.114E+01    1.112E+01    1.110E+01
     1.109E+01    1.107E+01    1.105E+01    1.103E+01    1.102E+01    1.100E+01    1.098E+01    1.096E+01    1.095E+01    1.093E+01
     1.091E+01    1.089E+01    1.087E+01    1.086E+01    1.084E+01    1.082E+01    1.080E+01    1.078E+01    1.076E+01    1.074E+01
     1.073E+01    1.071E+01    1.069E+01    1.067E+01    1.065E+01    1.063E+01    1.061E+01    1.059E+01    1.057E+01    1.055E+01
     1.053E+01    1.051E+01    1.049E+01    1.047E+01    1.045E+01    1.043E+01    1.041E+01    1.039E+01    1.037E+01    1.035E+01
     1.033E+01    1.031E+01    1.029E+01    1.027E+01    1.024E+01    1.022E+01    1.020E+01    1.018E+01    1.016E+01    1.014E+01
     1.012E+01    1.009E+01    1.007E+01    1.005E+01    1.003E+01    1.001E+01    9.985E+00    9.963E+00    9.941E+00    9.919E+00
     9.896E+00    9.874E+00    9.851E+00    9.829E+00    9.806E+00    9.783E+00    9.761E+00    9.738E+00    9.715E+00    9.692E+00
     9.669E+00    9.645E+00    9.622E+00    9.599E+00    9.575E+00    9.552E+00    9.528E+00    9.505E+00    9.481E+00    9.457E+00
     9.434E+00    9.410E+00    9.386E+00    9.362E+00    9.338E+00    9.313E+00    9.289E+00    9.265E+00    9.241E+00    9.216E+00
     9.192E+00    9.167E+00    9.143E+00    9.118E+00    9.093E+00    9.068E+00    9.044E+00    9.019E+00    8.994E+00    8.969E+00
     8.944E+00    8.919E+00    8.893E+00    8.868E+00    8.843E+00    8.818E+00    8.792E+00    8.767E+00    8.741E+00    8.716E+00
     8.690E+00    8.664E+00    8.638E+00    8.613E+00    8.587E+00    8.561E+00    8.535E+00    8.509E+00    8.483E+00    8.457E+00
     8.431E+00    8.405E+00    8.378E+00    8.352E+00    8.326E+00    8.299E+00    8.273E+00    8.247E+00    8.220E+00    8.193E+00
     8.167E+00    8.140E+00    8.114E+00    8.087E+00    8.060E+00    8.033E+00    8.006E+00    7.980E+00    7.953E+00    7.926E+00
     7.899E+00    7.872E+00    7.845E+00    7.817E+00    7.790E+00    7.763E+00    7.736E+00    7.709E+00    7.681E+00    7.654E+00
     7.627E+00    7.599E+00    7.572E+00    7.544E+00    7.517E+00    7.489E+00    7.462E+00    7.434E+00    7.407E+00    7.379E+00
     7.351E+00    7.324E+00    7.296E+00    7.268E+00    7.241E+00    7.213E+00    7.185E+00    7.157E+00    7.129E+00    7.101E+00
     7.074E+00    7.046E+00    7.018E+00    6.990E+00    6.962E+00    6.934E+00    6.906E+00    6.878E+00    6.850E+00    6.822E+00
     6.793E+00    6.765E+00    6.737E+00    6.709E+00    6.681E+00    6.653E+00    6.625E+00    6.596E+00    6.568E+00    6.540E+00
     6.512E+00    6.483E+00    6.455E+00    6.427E+00    6.399E+00    6.370E+00    6.342E+00    6.314E+00    6.286E+00    6.257E+00
     6.229E+00    6.201E+00    6.172E+00    6.144E+00    6.116E+00    6.087E+00    6.059E+00    6.031E+00    6.002E+00    5.974E+00
     5.946E+00    5.917E+00    5.889E+00    5.860E+00    5.832E+00    5.804E+00    5.775E+00    5.747E+00    5.719E+00    5.690E+00
     5.662E+00    5.634E+00    5.605E+00    5.577E+00    5.549E+00    5.521E+00    5.492E+00    5.464E+00    5.436E+00    5.407E+00
     5.379E+00    5.351E+00    5.323E+00    5.294E+00    5.266E+00    5.238E+00    5.210E+00    5.182E+00    5.154E+00    5.125E+00
     5.097E+00    5.069E+00    5.041E+00    5.013E+00    4.985E+00    4.957E+00    4.929E+00    4.901E+00
 Ala      Conc. = 2.66E+03
