 LCModel (Version 6.3-1L) Copyright: S.W. Provencher.          Ref.: Magn. Reson. Med. 30:672-679 (1993).                
 Slice#2 Row#3 Col#14  K_02_press_1_raw_act
 36 lines in following concentration table = NCONC+1
    Conc.  %SD /Cr+PCr  Metabolite                                         
   88.152 999%   7.360 Ala                                                 
    9.027 124%   0.754 Asp                                                 
   11.978 860%   1.000 Cr                                                  
    0.000 999%   0.000 PCr                                                 
    5.335 126%   0.445 GABA                                                
    5.409 125%   0.452 Glc                                                 
    0.000 999%   0.000 Gln                                                 
    0.000 999%   0.000 Glu                                                 
    0.000 999%   0.000 GPC                                                 
   55.943  80%   4.671 PCh                                                 
   45.985 398%   3.839 GSH                                                 
  611.743  81%  51.074 Ins                                                 
 1.19E+04  23% 991.193 Lac                                                 
    0.000 999%   0.000 NAA                                                 
    0.000 999%   0.000 NAAG                                                
    1.813 124%   0.151 Scyllo                                              
    9.055 124%   0.756 Tau                                                 
    1.174 970% 9.8E-02 -CrCH2                                              
   55.943  80%   4.671 GPC+PCh                                             
    0.000 999%   0.000 NAA+NAAG                                            
   11.978 860%   1.000 Cr+PCr                                              
    0.000 999%   0.000 Glu+Gln                                             
 1.15E+05   6% 9.6E+03 Lip13a                                              
    0.000 999%   0.000 Lip13b                                              
 3.09E+04   6% 2.6E+03 Lip09                                               
    0.000 999%   0.000 MM09                                                
 1.68E+04   6% 1.4E+03 Lip20                                               
    0.000 999%   0.000 MM20                                                
 1.09E+03  51%  91.402 MM12                                                
 1.22E+04  15% 1.0E+03+MM14                                                
 3.40E+03  34% 284.217 MM17                                                
 1.15E+05   6% 9.6E+03 Lip13a+Lip13b                                       
 1.28E+05   4% 1.1E+04 MM14+Lip13a+Lip13b+MM12                             
 3.09E+04   6% 2.6E+03 MM09+Lip09                                          
 1.68E+04   6% 1.4E+03 MM20+Lip20                                          
   6 lines in following misc. output table
  FWHM = 0.153 ppm    S/N =  75                                            
  Data shift = 0.046 ppm                                                   
  Ph:-171 deg      46.2 deg/ppm                                            
  alphaB,S = 5.6E+00,   4.3E+02                                            
    8 spline knots.   Ns = 9(2)                                            
  (12) 2 infls.   ( 3) 1 extrs.                                            
  498 points on ppm-axis = NY
      4.000000     3.992357     3.984714     3.977070     3.969427     3.961784     3.954141     3.946497     3.938854     3.931211
      3.923568     3.915925     3.908281     3.900638     3.892995     3.885352     3.877708     3.870065     3.862422     3.854779
      3.847136     3.839492     3.831849     3.824206     3.816563     3.808919     3.801276     3.793633     3.785990     3.778347
      3.770703     3.763060     3.755417     3.747774     3.740130     3.732487     3.724844     3.717201     3.709558     3.701914
      3.694271     3.686628     3.678985     3.671341     3.663698     3.656055     3.648412     3.640769     3.633125     3.625482
      3.617839     3.610196     3.602552     3.594909     3.587266     3.579623     3.571980     3.564336     3.556693     3.549050
      3.541407     3.533763     3.526120     3.518477     3.510834     3.503191     3.495547     3.487904     3.480261     3.472618
      3.464974     3.457331     3.449688     3.442045     3.434402     3.426758     3.419115     3.411472     3.403829     3.396185
      3.388542     3.380899     3.373256     3.365613     3.357969     3.350326     3.342683     3.335040     3.327396     3.319753
      3.312110     3.304467     3.296824     3.289180     3.281537     3.273894     3.266251     3.258607     3.250964     3.243321
      3.235678     3.228034     3.220391     3.212748     3.205105     3.197462     3.189818     3.182175     3.174532     3.166889
      3.159245     3.151602     3.143959     3.136316     3.128673     3.121029     3.113386     3.105743     3.098100     3.090456
      3.082813     3.075170     3.067527     3.059884     3.052240     3.044597     3.036954     3.029311     3.021667     3.014024
      3.006381     2.998738     2.991095     2.983451     2.975808     2.968165     2.960522     2.952878     2.945235     2.937592
      2.929949     2.922306     2.914662     2.907019     2.899376     2.891733     2.884089     2.876446     2.868803     2.861160
      2.853517     2.845873     2.838230     2.830587     2.822944     2.815300     2.807657     2.800014     2.792371     2.784728
      2.777084     2.769441     2.761798     2.754155     2.746511     2.738868     2.731225     2.723582     2.715939     2.708295
      2.700652     2.693009     2.685366     2.677722     2.670079     2.662436     2.654793     2.647150     2.639506     2.631863
      2.624220     2.616577     2.608933     2.601290     2.593647     2.586004     2.578361     2.570717     2.563074     2.555431
      2.547788     2.540144     2.532501     2.524858     2.517215     2.509572     2.501928     2.494285     2.486642     2.478999
      2.471355     2.463712     2.456069     2.448426     2.440783     2.433139     2.425496     2.417853     2.410210     2.402566
      2.394923     2.387280     2.379637     2.371994     2.364350     2.356707     2.349064     2.341421     2.333777     2.326134
      2.318491     2.310848     2.303205     2.295561     2.287918     2.280275     2.272632     2.264988     2.257345     2.249702
      2.242059     2.234416     2.226772     2.219129     2.211486     2.203843     2.196199     2.188556     2.180913     2.173270
      2.165627     2.157983     2.150340     2.142697     2.135054     2.127410     2.119767     2.112124     2.104481     2.096838
      2.089194     2.081551     2.073908     2.066265     2.058621     2.050978     2.043335     2.035692     2.028049     2.020405
      2.012762     2.005119     1.997476     1.989833     1.982190     1.974546     1.966903     1.959260     1.951617     1.943974
      1.936331     1.928688     1.921045     1.913402     1.905759     1.898115     1.890472     1.882829     1.875186     1.867543
      1.859900     1.852257     1.844614     1.836971     1.829327     1.821684     1.814041     1.806398     1.798755     1.791112
      1.783469     1.775826     1.768183     1.760540     1.752896     1.745253     1.737610     1.729967     1.722324     1.714681
      1.707038     1.699395     1.691752     1.684108     1.676465     1.668822     1.661179     1.653536     1.645893     1.638250
      1.630607     1.622964     1.615321     1.607677     1.600034     1.592391     1.584748     1.577105     1.569462     1.561819
      1.554176     1.546533     1.538890     1.531246     1.523603     1.515960     1.508317     1.500674     1.493031     1.485388
      1.477745     1.470102     1.462458     1.454815     1.447172     1.439529     1.431886     1.424243     1.416600     1.408957
      1.401314     1.393671     1.386027     1.378384     1.370741     1.363098     1.355455     1.347812     1.340169     1.332526
      1.324883     1.317240     1.309596     1.301953     1.294310     1.286667     1.279024     1.271381     1.263738     1.256095
      1.248452     1.240808     1.233165     1.225522     1.217879     1.210236     1.202593     1.194950     1.187307     1.179664
      1.172021     1.164377     1.156734     1.149091     1.141448     1.133805     1.126162     1.118519     1.110876     1.103233
      1.095590     1.087946     1.080303     1.072660     1.065017     1.057374     1.049731     1.042088     1.034445     1.026802
      1.019158     1.011515     1.003872     0.996229     0.988586     0.980943     0.973300     0.965657     0.958014     0.950371
      0.942727     0.935084     0.927441     0.919798     0.912155     0.904512     0.896869     0.889226     0.881583     0.873940
      0.866296     0.858653     0.851010     0.843367     0.835724     0.828081     0.820438     0.812795     0.805152     0.797508
      0.789865     0.782222     0.774579     0.766936     0.759293     0.751650     0.744007     0.736364     0.728721     0.721077
      0.713434     0.705791     0.698148     0.690505     0.682862     0.675219     0.667576     0.659933     0.652290     0.644646
      0.637003     0.629360     0.621717     0.614074     0.606431     0.598788     0.591145     0.583502     0.575858     0.568215
      0.560572     0.552929     0.545286     0.537643     0.530000     0.522357     0.514714     0.507071     0.499427     0.491784
      0.484141     0.476498     0.468855     0.461212     0.453569     0.445925     0.438282     0.430639     0.422996     0.415353
      0.407710     0.400067     0.392424     0.384780     0.377137     0.369494     0.361851     0.354208     0.346565     0.338922
      0.331278     0.323635     0.315992     0.308349     0.300706     0.293063     0.285420     0.277777     0.270133     0.262490
      0.254847     0.247204     0.239561     0.231918     0.224275     0.216631     0.208988     0.201345
 NY phased data points follow
  -1.45426E+01 -1.56438E+01 -1.57609E+01 -1.56540E+01 -1.29923E+01 -1.37834E+01 -1.69868E+01 -1.59156E+01 -1.56389E+01 -1.40138E+01
  -1.35492E+01 -1.80346E+01 -1.50137E+01 -1.54256E+01 -1.44566E+01 -1.65629E+01 -1.68284E+01 -1.75131E+01 -1.48394E+01 -1.69365E+01
  -1.91205E+01 -1.58352E+01 -1.75000E+01 -2.05352E+01 -1.79321E+01 -1.83262E+01 -1.85499E+01 -1.65841E+01 -1.89501E+01 -1.97965E+01
  -1.74133E+01 -1.87094E+01 -1.80741E+01 -1.96858E+01 -1.80736E+01 -1.91714E+01 -2.16040E+01 -1.81834E+01 -1.91932E+01 -2.29223E+01
  -2.02276E+01 -2.36225E+01 -2.21770E+01 -2.12278E+01 -2.28634E+01 -2.08915E+01 -2.26138E+01 -2.00917E+01 -1.95634E+01 -2.36579E+01
  -2.08149E+01 -2.38051E+01 -2.10283E+01 -2.17488E+01 -2.06545E+01 -2.21209E+01 -1.84475E+01 -2.04888E+01 -1.99029E+01 -2.15058E+01
  -2.09153E+01 -2.22563E+01 -2.34487E+01 -2.80859E+01 -2.35540E+01 -2.40546E+01 -2.38687E+01 -2.54831E+01 -2.73521E+01 -2.66597E+01
  -2.46573E+01 -2.19987E+01 -2.42413E+01 -2.27861E+01 -2.50194E+01 -2.26965E+01 -2.79283E+01 -2.39114E+01 -2.44722E+01 -2.81598E+01
  -2.45369E+01 -2.54218E+01 -2.54701E+01 -2.86415E+01 -2.50597E+01 -2.95449E+01 -2.67617E+01 -2.81353E+01 -2.77720E+01 -2.67265E+01
  -2.89870E+01 -2.81709E+01 -2.98529E+01 -2.85384E+01 -3.02056E+01 -2.75229E+01 -3.02846E+01 -3.22490E+01 -2.87637E+01 -2.82102E+01
  -2.90279E+01 -3.06981E+01 -2.79533E+01 -2.47390E+01 -2.72882E+01 -2.65346E+01 -3.01150E+01 -2.95452E+01 -2.92447E+01 -2.91009E+01
  -3.09740E+01 -3.07128E+01 -3.06438E+01 -2.97659E+01 -3.08414E+01 -3.15519E+01 -3.34849E+01 -3.41929E+01 -3.14805E+01 -3.37257E+01
  -3.48967E+01 -3.09815E+01 -3.27745E+01 -3.20912E+01 -3.13601E+01 -3.11909E+01 -2.60027E+01 -3.12370E+01 -3.25541E+01 -3.07567E+01
  -3.10883E+01 -3.09841E+01 -3.02216E+01 -3.50568E+01 -3.64076E+01 -3.33009E+01 -3.62195E+01 -3.26286E+01 -3.32516E+01 -3.57648E+01
  -3.31649E+01 -3.38216E+01 -3.49846E+01 -3.70623E+01 -3.50817E+01 -3.28294E+01 -3.56805E+01 -3.73115E+01 -3.61878E+01 -3.63687E+01
  -3.34709E+01 -3.44906E+01 -3.59701E+01 -4.28759E+01 -3.56113E+01 -3.65940E+01 -3.27370E+01 -3.55696E+01 -3.67023E+01 -4.01036E+01
  -3.74543E+01 -3.88606E+01 -3.43176E+01 -3.71905E+01 -3.89289E+01 -3.75473E+01 -3.90743E+01 -3.46036E+01 -3.83529E+01 -4.36435E+01
  -3.54919E+01 -4.22149E+01 -3.91395E+01 -4.13733E+01 -4.11861E+01 -4.43059E+01 -3.80162E+01 -3.86752E+01 -4.30153E+01 -4.45259E+01
  -4.12447E+01 -4.39453E+01 -4.01236E+01 -4.14299E+01 -4.31344E+01 -4.67630E+01 -4.37681E+01 -4.58508E+01 -4.48868E+01 -4.54088E+01
  -4.08780E+01 -4.35102E+01 -4.36576E+01 -4.57236E+01 -4.56635E+01 -4.25774E+01 -4.56573E+01 -4.53610E+01 -4.68992E+01 -4.16164E+01
  -4.69007E+01 -4.27410E+01 -4.28193E+01 -4.45013E+01 -4.31365E+01 -4.01777E+01 -4.50368E+01 -4.71576E+01 -4.48747E+01 -4.99518E+01
  -4.87968E+01 -4.61560E+01 -4.40131E+01 -4.57634E+01 -4.79428E+01 -4.55343E+01 -4.49751E+01 -4.74295E+01 -4.74654E+01 -4.77923E+01
  -4.98663E+01 -5.16726E+01 -5.13812E+01 -5.03522E+01 -4.89599E+01 -5.05575E+01 -4.60237E+01 -5.13717E+01 -4.95228E+01 -5.29876E+01
  -5.41518E+01 -5.21842E+01 -5.31699E+01 -5.04033E+01 -5.29356E+01 -5.18753E+01 -5.17987E+01 -5.29352E+01 -5.27845E+01 -5.52277E+01
  -5.62922E+01 -5.69731E+01 -5.88610E+01 -5.51427E+01 -5.57507E+01 -5.61026E+01 -5.77510E+01 -6.07548E+01 -6.04521E+01 -5.60812E+01
  -6.01362E+01 -6.04449E+01 -6.18374E+01 -6.25637E+01 -6.20597E+01 -6.50698E+01 -5.81753E+01 -5.66469E+01 -5.71473E+01 -5.67252E+01
  -5.94977E+01 -6.23040E+01 -6.37727E+01 -6.42157E+01 -6.01597E+01 -6.44725E+01 -6.27196E+01 -6.70517E+01 -6.51385E+01 -6.57681E+01
  -6.32393E+01 -6.21984E+01 -6.12999E+01 -6.43701E+01 -6.25327E+01 -6.25832E+01 -6.44226E+01 -6.00707E+01 -5.78045E+01 -6.23413E+01
  -5.77539E+01 -5.75001E+01 -6.13246E+01 -5.87860E+01 -5.86608E+01 -5.17801E+01 -5.23092E+01 -5.51955E+01 -5.27699E+01 -4.79803E+01
  -4.92296E+01 -4.99604E+01 -4.59874E+01 -4.18637E+01 -4.13712E+01 -3.66958E+01 -3.64778E+01 -3.45326E+01 -2.92760E+01 -2.33117E+01
  -1.33612E+01 -1.45073E+01 -8.39438E+00 -2.61015E+00  7.94036E+00  7.90483E+00  1.70431E+01  2.60795E+01  3.30908E+01  3.84469E+01
   4.57829E+01  5.79261E+01  6.25623E+01  7.81231E+01  8.71238E+01  9.80750E+01  1.10531E+02  1.23955E+02  1.37076E+02  1.55782E+02
   1.71553E+02  1.90147E+02  2.09664E+02  2.27462E+02  2.47493E+02  2.68909E+02  2.89356E+02  3.09855E+02  3.29409E+02  3.46909E+02
   3.64182E+02  3.82250E+02  3.97219E+02  4.09543E+02  4.25887E+02  4.31926E+02  4.40195E+02  4.47356E+02  4.47855E+02  4.53485E+02
   4.48519E+02  4.42195E+02  4.37548E+02  4.34691E+02  4.20298E+02  4.06226E+02  3.89569E+02  3.72818E+02  3.57449E+02  3.37317E+02
   3.18482E+02  3.01877E+02  2.84105E+02  2.68564E+02  2.49697E+02  2.37347E+02  2.23786E+02  2.09368E+02  1.92308E+02  1.80145E+02
   1.75966E+02  1.62065E+02  1.51796E+02  1.42182E+02  1.34539E+02  1.26141E+02  1.17944E+02  1.09214E+02  1.03307E+02  9.59064E+01
   9.39533E+01  8.92515E+01  8.29854E+01  8.14683E+01  7.46740E+01  7.14864E+01  6.85450E+01  6.64826E+01  6.35779E+01  5.98926E+01
   5.85188E+01  5.42010E+01  5.33495E+01  5.18139E+01  4.89288E+01  4.86843E+01  4.82043E+01  4.18805E+01  4.34763E+01  3.97517E+01
   4.21331E+01  3.67284E+01  3.88563E+01  3.73103E+01  3.51837E+01  3.33807E+01  3.29124E+01  3.08943E+01  3.01533E+01  2.67427E+01
   2.54193E+01  2.58936E+01  2.23414E+01  2.20938E+01  2.15905E+01  1.93333E+01  1.59514E+01  1.94202E+01  1.66323E+01  1.26871E+01
   1.62395E+01  9.30252E+00  9.43602E+00  9.09800E+00  1.05873E+01  7.15940E+00  3.61797E+00  2.26284E+00  1.91766E+00  2.80227E+00
   2.11705E-01  5.06462E+00 -1.22127E+00 -2.48701E+00 -2.36574E+00 -6.12994E+00 -7.12884E+00 -5.91792E+00 -9.08531E+00 -8.77780E+00
  -9.39001E+00 -8.24107E+00 -1.10213E+01 -1.14394E+01 -1.43933E+01 -1.23245E+01 -1.55977E+01 -1.28712E+01 -1.48855E+01 -1.52152E+01
  -1.42506E+01 -1.55512E+01 -1.69860E+01 -1.65412E+01 -2.02268E+01 -1.70574E+01 -1.83656E+01 -1.80016E+01 -2.27353E+01 -1.78710E+01
  -2.09446E+01 -2.38552E+01 -2.07207E+01 -2.38651E+01 -2.15602E+01 -2.30966E+01 -2.15656E+01 -2.37137E+01 -2.65790E+01 -2.04912E+01
  -2.47590E+01 -2.34044E+01 -2.74055E+01 -2.33464E+01 -2.41018E+01 -2.59432E+01 -2.50824E+01 -2.71248E+01 -2.36075E+01 -2.89809E+01
  -2.58386E+01 -2.81751E+01 -2.81573E+01 -2.70654E+01 -2.77155E+01 -3.02014E+01 -2.83963E+01 -3.01877E+01 -2.96532E+01 -2.86078E+01
  -2.89526E+01 -3.10269E+01 -2.87955E+01 -2.74025E+01 -2.80781E+01 -2.53258E+01 -2.80317E+01 -2.97162E+01 -3.03580E+01 -2.78618E+01
  -3.29034E+01 -2.51195E+01 -3.39488E+01 -3.38278E+01 -3.07621E+01 -2.65940E+01 -3.04606E+01 -2.97235E+01
 NY points of the fit to the data follow
  -1.48286E+01 -1.32165E+01 -1.53228E+01 -1.40599E+01 -1.54075E+01 -1.40468E+01 -1.52184E+01 -1.43480E+01 -1.52995E+01 -1.49802E+01
  -1.58143E+01 -1.61018E+01 -1.67801E+01 -1.67272E+01 -1.70388E+01 -1.69189E+01 -1.70170E+01 -1.69336E+01 -1.68876E+01 -1.70099E+01
  -1.71318E+01 -1.73025E+01 -1.74253E+01 -1.76079E+01 -1.77204E+01 -1.79105E+01 -1.80081E+01 -1.82108E+01 -1.82982E+01 -1.84833E+01
  -1.85350E+01 -1.87126E+01 -1.87646E+01 -1.89423E+01 -1.89967E+01 -1.91779E+01 -1.92424E+01 -1.94261E+01 -1.94995E+01 -1.96791E+01
  -1.97593E+01 -1.99249E+01 -1.99975E+01 -2.01484E+01 -2.02098E+01 -2.03769E+01 -2.04620E+01 -2.06655E+01 -2.07862E+01 -2.10267E+01
  -2.11703E+01 -2.14224E+01 -2.15511E+01 -2.18209E+01 -2.19459E+01 -2.22267E+01 -2.23361E+01 -2.26307E+01 -2.27257E+01 -2.30258E+01
  -2.30936E+01 -2.33982E+01 -2.34574E+01 -2.37651E+01 -2.38192E+01 -2.41363E+01 -2.41956E+01 -2.45170E+01 -2.45689E+01 -2.48570E+01
  -2.48789E+01 -2.51675E+01 -2.52237E+01 -2.55311E+01 -2.56152E+01 -2.59334E+01 -2.60385E+01 -2.63666E+01 -2.64885E+01 -2.68213E+01
  -2.69670E+01 -2.72879E+01 -2.74315E+01 -2.77350E+01 -2.78582E+01 -2.80900E+01 -2.81958E+01 -2.83773E+01 -2.84707E+01 -2.85891E+01
  -2.86676E+01 -2.87138E+01 -2.87857E+01 -2.87720E+01 -2.88340E+01 -2.87626E+01 -2.88316E+01 -2.87266E+01 -2.88059E+01 -2.86782E+01
  -2.87805E+01 -2.86881E+01 -2.88260E+01 -2.87982E+01 -2.89686E+01 -2.90126E+01 -2.92025E+01 -2.92982E+01 -2.94975E+01 -2.96508E+01
  -2.98605E+01 -3.00538E+01 -3.02606E+01 -3.04740E+01 -3.06650E+01 -3.08683E+01 -3.10278E+01 -3.11988E+01 -3.13284E+01 -3.14758E+01
  -3.15960E+01 -3.17404E+01 -3.18510E+01 -3.19820E+01 -3.20592E+01 -3.21020E+01 -3.21606E+01 -3.22048E+01 -3.22619E+01 -3.23158E+01
  -3.23736E+01 -3.24405E+01 -3.25009E+01 -3.25816E+01 -3.26448E+01 -3.27378E+01 -3.28035E+01 -3.29082E+01 -3.29776E+01 -3.30941E+01
  -3.31706E+01 -3.32988E+01 -3.33870E+01 -3.35278E+01 -3.36304E+01 -3.37844E+01 -3.39033E+01 -3.40693E+01 -3.42044E+01 -3.43778E+01
  -3.45322E+01 -3.47199E+01 -3.48948E+01 -3.50947E+01 -3.52877E+01 -3.54966E+01 -3.57062E+01 -3.59307E+01 -3.61596E+01 -3.63996E+01
  -3.66467E+01 -3.68981E+01 -3.71588E+01 -3.74197E+01 -3.76910E+01 -3.79626E+01 -3.82440E+01 -3.85263E+01 -3.88163E+01 -3.91079E+01
  -3.94045E+01 -3.97027E+01 -4.00027E+01 -4.03050E+01 -4.06060E+01 -4.09111E+01 -4.12119E+01 -4.15184E+01 -4.18169E+01 -4.21239E+01
  -4.24194E+01 -4.27223E+01 -4.30123E+01 -4.33080E+01 -4.35916E+01 -4.38784E+01 -4.41551E+01 -4.44313E+01 -4.47013E+01 -4.49666E+01
  -4.52308E+01 -4.54840E+01 -4.57420E+01 -4.59826E+01 -4.62332E+01 -4.64589E+01 -4.67005E+01 -4.69125E+01 -4.71444E+01 -4.73444E+01
  -4.75664E+01 -4.77564E+01 -4.79684E+01 -4.81488E+01 -4.83497E+01 -4.85217E+01 -4.87116E+01 -4.88779E+01 -4.90585E+01 -4.92207E+01
  -4.93934E+01 -4.95515E+01 -4.97158E+01 -4.98699E+01 -5.00274E+01 -5.01782E+01 -5.03308E+01 -5.04797E+01 -5.06295E+01 -5.07781E+01
  -5.09267E+01 -5.10738E+01 -5.12220E+01 -5.13701E+01 -5.15197E+01 -5.16705E+01 -5.18229E+01 -5.19767E+01 -5.21311E+01 -5.22881E+01
  -5.24445E+01 -5.26061E+01 -5.27653E+01 -5.29331E+01 -5.30969E+01 -5.32745E+01 -5.34452E+01 -5.36324E+01 -5.38097E+01 -5.40057E+01
  -5.41898E+01 -5.43926E+01 -5.45832E+01 -5.47931E+01 -5.49914E+01 -5.52081E+01 -5.54146E+01 -5.56372E+01 -5.58520E+01 -5.60783E+01
  -5.62993E+01 -5.65282E+01 -5.67550E+01 -5.69877E+01 -5.72187E+01 -5.74502E+01 -5.76803E+01 -5.79058E+01 -5.81291E+01 -5.83419E+01
  -5.85529E+01 -5.87540E+01 -5.89503E+01 -5.91343E+01 -5.93097E+01 -5.94701E+01 -5.96178E+01 -5.97452E+01 -5.98552E+01 -5.99423E+01
  -6.00076E+01 -6.00467E+01 -6.00591E+01 -6.00416E+01 -5.99924E+01 -5.99081E+01 -5.97857E+01 -5.96215E+01 -5.94115E+01 -5.91508E+01
  -5.88338E+01 -5.84536E+01 -5.80020E+01 -5.74688E+01 -5.68426E+01 -5.61087E+01 -5.52511E+01 -5.42501E+01 -5.30849E+01 -5.17310E+01
  -5.01637E+01 -4.83558E+01 -4.62813E+01 -4.39140E+01 -4.12318E+01 -3.82148E+01 -3.48498E+01 -3.11283E+01 -2.70496E+01 -2.26187E+01
  -1.78476E+01 -1.27514E+01 -7.34770E+00 -1.65165E+00  4.32583E+00  1.05834E+01  1.71312E+01  2.39957E+01  3.12205E+01  3.88665E+01
   4.69895E+01  5.56960E+01  6.50547E+01  7.51890E+01  8.61573E+01  9.80729E+01  1.10953E+02  1.24892E+02  1.39835E+02  1.55813E+02
   1.72708E+02  1.90481E+02  2.08961E+02  2.28046E+02  2.47537E+02  2.67287E+02  2.87143E+02  3.06985E+02  3.26930E+02  3.47057E+02
   3.65206E+02  3.82900E+02  3.98157E+02  4.12371E+02  4.23829E+02  4.33468E+02  4.40191E+02  4.46275E+02  4.48832E+02  4.50750E+02
   4.48465E+02  4.45504E+02  4.38354E+02  4.30882E+02  4.18886E+02  4.06321E+02  3.90392E+02  3.74329E+02  3.56161E+02  3.38244E+02
   3.19576E+02  3.02299E+02  2.84585E+02  2.68131E+02  2.51964E+02  2.36723E+02  2.22250E+02  2.08065E+02  1.95435E+02  1.83014E+02
   1.72361E+02  1.61564E+02  1.52242E+02  1.42421E+02  1.34127E+02  1.24772E+02  1.17625E+02  1.09580E+02  1.04368E+02  9.95688E+01
   9.47369E+01  8.97172E+01  8.51980E+01  7.98277E+01  7.53507E+01  6.94317E+01  6.50406E+01  6.16601E+01  5.88700E+01  5.64903E+01
   5.44193E+01  5.25896E+01  5.09508E+01  4.94639E+01  4.80964E+01  4.68211E+01  4.56145E+01  4.44565E+01  4.33297E+01  4.22194E+01
   4.11128E+01  3.99994E+01  3.88701E+01  3.77181E+01  3.65378E+01  3.53256E+01  3.40789E+01  3.27965E+01  3.14782E+01  3.01250E+01
   2.87388E+01  2.73224E+01  2.58789E+01  2.44122E+01  2.29262E+01  2.14253E+01  1.99140E+01  1.83970E+01  1.68786E+01  1.53633E+01
   1.38553E+01  1.23587E+01  1.08773E+01  9.41460E+00  7.97384E+00  6.55789E+00  5.16932E+00  3.81047E+00  2.48324E+00  1.18930E+00
  -7.01007E-02 -1.29386E+00 -2.48120E+00 -3.63150E+00 -4.74446E+00 -5.81992E+00 -6.85805E+00 -7.85898E+00 -8.82311E+00 -9.75082E+00
  -1.06428E+01 -1.14997E+01 -1.23223E+01 -1.31114E+01 -1.38679E+01 -1.45926E+01 -1.52866E+01 -1.59507E+01 -1.65861E+01 -1.71935E+01
  -1.77741E+01 -1.83286E+01 -1.88583E+01 -1.93639E+01 -1.98464E+01 -2.03067E+01 -2.07458E+01 -2.11643E+01 -2.15633E+01 -2.19435E+01
  -2.23058E+01 -2.26507E+01 -2.29792E+01 -2.32919E+01 -2.35895E+01 -2.38727E+01 -2.41421E+01 -2.43983E+01 -2.46419E+01 -2.48735E+01
  -2.50936E+01 -2.53027E+01 -2.55014E+01 -2.56900E+01 -2.58690E+01 -2.60390E+01 -2.62003E+01 -2.63533E+01 -2.64984E+01 -2.66360E+01
  -2.67664E+01 -2.68899E+01 -2.70070E+01 -2.71177E+01 -2.72226E+01 -2.73218E+01 -2.74157E+01 -2.75044E+01 -2.75883E+01 -2.76676E+01
  -2.77424E+01 -2.78130E+01 -2.78797E+01 -2.79426E+01 -2.80019E+01 -2.80577E+01 -2.81102E+01 -2.81597E+01 -2.82063E+01 -2.82500E+01
  -2.82911E+01 -2.83296E+01 -2.83658E+01 -2.83996E+01 -2.84313E+01 -2.84608E+01 -2.84883E+01 -2.85138E+01
 NY background values follow
    -1.809E+01   -1.827E+01   -1.845E+01   -1.864E+01   -1.882E+01   -1.901E+01   -1.919E+01   -1.938E+01   -1.957E+01   -1.975E+01
    -1.994E+01   -2.013E+01   -2.032E+01   -2.050E+01   -2.069E+01   -2.088E+01   -2.107E+01   -2.126E+01   -2.145E+01   -2.164E+01
    -2.183E+01   -2.203E+01   -2.222E+01   -2.241E+01   -2.260E+01   -2.280E+01   -2.299E+01   -2.319E+01   -2.338E+01   -2.358E+01
    -2.377E+01   -2.397E+01   -2.417E+01   -2.436E+01   -2.456E+01   -2.476E+01   -2.496E+01   -2.516E+01   -2.536E+01   -2.556E+01
    -2.576E+01   -2.596E+01   -2.616E+01   -2.636E+01   -2.656E+01   -2.677E+01   -2.697E+01   -2.717E+01   -2.738E+01   -2.758E+01
    -2.779E+01   -2.800E+01   -2.820E+01   -2.841E+01   -2.862E+01   -2.883E+01   -2.904E+01   -2.925E+01   -2.946E+01   -2.967E+01
    -2.988E+01   -3.009E+01   -3.030E+01   -3.052E+01   -3.073E+01   -3.094E+01   -3.116E+01   -3.137E+01   -3.159E+01   -3.181E+01
    -3.202E+01   -3.224E+01   -3.246E+01   -3.268E+01   -3.290E+01   -3.312E+01   -3.334E+01   -3.356E+01   -3.378E+01   -3.401E+01
    -3.423E+01   -3.445E+01   -3.468E+01   -3.490E+01   -3.513E+01   -3.536E+01   -3.558E+01   -3.581E+01   -3.604E+01   -3.627E+01
    -3.650E+01   -3.673E+01   -3.696E+01   -3.719E+01   -3.743E+01   -3.766E+01   -3.789E+01   -3.813E+01   -3.836E+01   -3.860E+01
    -3.884E+01   -3.907E+01   -3.931E+01   -3.955E+01   -3.979E+01   -4.003E+01   -4.027E+01   -4.052E+01   -4.076E+01   -4.101E+01
    -4.125E+01   -4.150E+01   -4.174E+01   -4.199E+01   -4.224E+01   -4.249E+01   -4.274E+01   -4.300E+01   -4.325E+01   -4.351E+01
    -4.376E+01   -4.402E+01   -4.428E+01   -4.454E+01   -4.480E+01   -4.506E+01   -4.533E+01   -4.559E+01   -4.586E+01   -4.613E+01
    -4.640E+01   -4.667E+01   -4.694E+01   -4.721E+01   -4.749E+01   -4.777E+01   -4.805E+01   -4.833E+01   -4.861E+01   -4.889E+01
    -4.918E+01   -4.947E+01   -4.976E+01   -5.005E+01   -5.034E+01   -5.063E+01   -5.093E+01   -5.123E+01   -5.153E+01   -5.183E+01
    -5.214E+01   -5.244E+01   -5.275E+01   -5.306E+01   -5.337E+01   -5.369E+01   -5.400E+01   -5.432E+01   -5.464E+01   -5.497E+01
    -5.529E+01   -5.562E+01   -5.595E+01   -5.628E+01   -5.661E+01   -5.695E+01   -5.729E+01   -5.763E+01   -5.798E+01   -5.832E+01
    -5.867E+01   -5.902E+01   -5.938E+01   -5.973E+01   -6.009E+01   -6.045E+01   -6.082E+01   -6.118E+01   -6.155E+01   -6.192E+01
    -6.230E+01   -6.268E+01   -6.306E+01   -6.344E+01   -6.383E+01   -6.422E+01   -6.461E+01   -6.500E+01   -6.540E+01   -6.580E+01
    -6.620E+01   -6.661E+01   -6.702E+01   -6.743E+01   -6.785E+01   -6.827E+01   -6.869E+01   -6.911E+01   -6.954E+01   -6.997E+01
    -7.041E+01   -7.085E+01   -7.129E+01   -7.173E+01   -7.217E+01   -7.262E+01   -7.307E+01   -7.353E+01   -7.398E+01   -7.444E+01
    -7.489E+01   -7.535E+01   -7.581E+01   -7.628E+01   -7.674E+01   -7.720E+01   -7.767E+01   -7.813E+01   -7.860E+01   -7.906E+01
    -7.953E+01   -7.999E+01   -8.046E+01   -8.092E+01   -8.139E+01   -8.185E+01   -8.231E+01   -8.278E+01   -8.324E+01   -8.369E+01
    -8.415E+01   -8.461E+01   -8.506E+01   -8.551E+01   -8.596E+01   -8.641E+01   -8.686E+01   -8.730E+01   -8.774E+01   -8.818E+01
    -8.861E+01   -8.904E+01   -8.947E+01   -8.989E+01   -9.031E+01   -9.073E+01   -9.114E+01   -9.155E+01   -9.195E+01   -9.235E+01
    -9.274E+01   -9.313E+01   -9.352E+01   -9.390E+01   -9.427E+01   -9.464E+01   -9.500E+01   -9.536E+01   -9.571E+01   -9.606E+01
    -9.640E+01   -9.673E+01   -9.706E+01   -9.738E+01   -9.769E+01   -9.800E+01   -9.829E+01   -9.859E+01   -9.887E+01   -9.915E+01
    -9.941E+01   -9.968E+01   -9.993E+01   -1.002E+02   -1.004E+02   -1.006E+02   -1.009E+02   -1.011E+02   -1.013E+02   -1.015E+02
    -1.016E+02   -1.018E+02   -1.020E+02   -1.021E+02   -1.023E+02   -1.024E+02   -1.025E+02   -1.026E+02   -1.027E+02   -1.028E+02
    -1.029E+02   -1.030E+02   -1.030E+02   -1.031E+02   -1.031E+02   -1.031E+02   -1.032E+02   -1.032E+02   -1.031E+02   -1.031E+02
    -1.031E+02   -1.030E+02   -1.030E+02   -1.029E+02   -1.028E+02   -1.027E+02   -1.026E+02   -1.025E+02   -1.024E+02   -1.022E+02
    -1.021E+02   -1.019E+02   -1.017E+02   -1.016E+02   -1.014E+02   -1.012E+02   -1.010E+02   -1.007E+02   -1.005E+02   -1.003E+02
    -1.000E+02   -9.976E+01   -9.950E+01   -9.922E+01   -9.894E+01   -9.865E+01   -9.835E+01   -9.805E+01   -9.774E+01   -9.742E+01
    -9.709E+01   -9.675E+01   -9.641E+01   -9.606E+01   -9.571E+01   -9.534E+01   -9.498E+01   -9.460E+01   -9.422E+01   -9.383E+01
    -9.344E+01   -9.304E+01   -9.264E+01   -9.223E+01   -9.182E+01   -9.140E+01   -9.098E+01   -9.055E+01   -9.012E+01   -8.968E+01
    -8.925E+01   -8.880E+01   -8.835E+01   -8.790E+01   -8.745E+01   -8.699E+01   -8.653E+01   -8.607E+01   -8.560E+01   -8.513E+01
    -8.466E+01   -8.419E+01   -8.371E+01   -8.323E+01   -8.275E+01   -8.227E+01   -8.179E+01   -8.131E+01   -8.082E+01   -8.034E+01
    -7.985E+01   -7.936E+01   -7.888E+01   -7.839E+01   -7.790E+01   -7.741E+01   -7.692E+01   -7.644E+01   -7.595E+01   -7.546E+01
    -7.498E+01   -7.450E+01   -7.401E+01   -7.353E+01   -7.305E+01   -7.257E+01   -7.210E+01   -7.162E+01   -7.115E+01   -7.068E+01
    -7.021E+01   -6.975E+01   -6.929E+01   -6.883E+01   -6.837E+01   -6.792E+01   -6.747E+01   -6.702E+01   -6.658E+01   -6.614E+01
    -6.571E+01   -6.528E+01   -6.485E+01   -6.443E+01   -6.401E+01   -6.360E+01   -6.319E+01   -6.278E+01   -6.238E+01   -6.198E+01
    -6.158E+01   -6.119E+01   -6.080E+01   -6.042E+01   -6.003E+01   -5.966E+01   -5.928E+01   -5.891E+01   -5.855E+01   -5.818E+01
    -5.782E+01   -5.747E+01   -5.711E+01   -5.676E+01   -5.642E+01   -5.608E+01   -5.574E+01   -5.540E+01   -5.507E+01   -5.474E+01
    -5.442E+01   -5.409E+01   -5.377E+01   -5.346E+01   -5.315E+01   -5.284E+01   -5.253E+01   -5.223E+01   -5.193E+01   -5.164E+01
    -5.134E+01   -5.105E+01   -5.077E+01   -5.048E+01   -5.020E+01   -4.993E+01   -4.965E+01   -4.938E+01   -4.911E+01   -4.885E+01
    -4.859E+01   -4.833E+01   -4.807E+01   -4.782E+01   -4.757E+01   -4.732E+01   -4.708E+01   -4.684E+01   -4.660E+01   -4.637E+01
    -4.613E+01   -4.590E+01   -4.568E+01   -4.545E+01   -4.523E+01   -4.501E+01   -4.480E+01   -4.458E+01   -4.437E+01   -4.417E+01
    -4.396E+01   -4.376E+01   -4.356E+01   -4.336E+01   -4.317E+01   -4.298E+01   -4.279E+01   -4.260E+01   -4.242E+01   -4.224E+01
    -4.206E+01   -4.188E+01   -4.171E+01   -4.153E+01   -4.136E+01   -4.120E+01   -4.103E+01   -4.087E+01   -4.071E+01   -4.055E+01
    -4.040E+01   -4.025E+01   -4.010E+01   -3.995E+01   -3.980E+01   -3.966E+01   -3.952E+01   -3.938E+01
 Ala      Conc. = 8.82E+01
