 LCModel (Version 6.3-1L) Copyright: S.W. Provencher.          Ref.: Magn. Reson. Med. 30:672-679 (1993).                
 Slice#2 Row#13 Col#9  K_02_press_1_raw_act
 36 lines in following concentration table = NCONC+1
    Conc.  %SD /Cr+PCr  Metabolite                                         
    0.000 999%   0.000 Ala                                                 
   40.982 232% 8.6E-02 Asp                                                 
  270.206  48%   0.565 Cr                                                  
  207.676  63%   0.435 PCr                                                 
   27.790 226% 5.8E-02 GABA                                                
   55.257 111%   0.116 Glc                                                 
   90.799 176%   0.190 Gln                                                 
  465.486  40%   0.974 Glu                                                 
  159.125  53%   0.333 GPC                                                 
    2.583 999% 5.4E-03 PCh                                                 
  188.039  25%   0.393 GSH                                                 
 1.04E+03  17%   2.183 Ins                                                 
    0.000 999%   0.000 Lac                                                 
  942.091   7%   1.971 NAA                                                 
  127.349  56%   0.266 NAAG                                                
   73.214  20%   0.153 Scyllo                                              
  196.197  49%   0.411 Tau                                                 
  192.999  34%   0.404 -CrCH2                                              
  161.709   8%   0.338 GPC+PCh                                             
 1.07E+03   4%   2.238 NAA+NAAG                                            
  477.882   7%   1.000 Cr+PCr                                              
  556.285  51%   1.164 Glu+Gln                                             
  119.663 133%   0.250 Lip13a                                              
    0.000 999%   0.000 Lip13b                                              
    6.749 853% 1.4E-02 Lip09                                               
  384.968  23%   0.806 MM09                                                
   18.865 189% 3.9E-02 Lip20                                               
  692.332  22%   1.449 MM20                                                
  113.984  38%   0.239 MM12                                                
  306.051  37%   0.640 MM14                                                
  227.657  33%   0.476 MM17                                                
  119.663 133%   0.250 Lip13a+Lip13b                                       
  539.698  32%   1.129 MM14+Lip13a+Lip13b+MM12                             
  391.717  22%   0.820 MM09+Lip09                                          
  711.197  21%   1.488 MM20+Lip20                                          
   6 lines in following misc. output table
  FWHM = 0.061 ppm    S/N =   8                                            
  Data shift =-0.015 ppm                                                   
  Ph: -79 deg     -23.9 deg/ppm                                            
  alphaB,S = 6.4E-01,   5.1E+01                                            
   14 spline knots.   Ns = 8(1)                                            
  (12) 5 infls.   (11) 1 extrs.                                            
  498 points on ppm-axis = NY
      4.000000     3.992357     3.984714     3.977070     3.969427     3.961784     3.954141     3.946497     3.938854     3.931211
      3.923568     3.915925     3.908281     3.900638     3.892995     3.885352     3.877708     3.870065     3.862422     3.854779
      3.847136     3.839492     3.831849     3.824206     3.816563     3.808919     3.801276     3.793633     3.785990     3.778347
      3.770703     3.763060     3.755417     3.747774     3.740130     3.732487     3.724844     3.717201     3.709558     3.701914
      3.694271     3.686628     3.678985     3.671341     3.663698     3.656055     3.648412     3.640769     3.633125     3.625482
      3.617839     3.610196     3.602552     3.594909     3.587266     3.579623     3.571980     3.564336     3.556693     3.549050
      3.541407     3.533763     3.526120     3.518477     3.510834     3.503191     3.495547     3.487904     3.480261     3.472618
      3.464974     3.457331     3.449688     3.442045     3.434402     3.426758     3.419115     3.411472     3.403829     3.396185
      3.388542     3.380899     3.373256     3.365613     3.357969     3.350326     3.342683     3.335040     3.327396     3.319753
      3.312110     3.304467     3.296824     3.289180     3.281537     3.273894     3.266251     3.258607     3.250964     3.243321
      3.235678     3.228034     3.220391     3.212748     3.205105     3.197462     3.189818     3.182175     3.174532     3.166889
      3.159245     3.151602     3.143959     3.136316     3.128673     3.121029     3.113386     3.105743     3.098100     3.090456
      3.082813     3.075170     3.067527     3.059884     3.052240     3.044597     3.036954     3.029311     3.021667     3.014024
      3.006381     2.998738     2.991095     2.983451     2.975808     2.968165     2.960522     2.952878     2.945235     2.937592
      2.929949     2.922306     2.914662     2.907019     2.899376     2.891733     2.884089     2.876446     2.868803     2.861160
      2.853517     2.845873     2.838230     2.830587     2.822944     2.815300     2.807657     2.800014     2.792371     2.784728
      2.777084     2.769441     2.761798     2.754155     2.746511     2.738868     2.731225     2.723582     2.715939     2.708295
      2.700652     2.693009     2.685366     2.677722     2.670079     2.662436     2.654793     2.647150     2.639506     2.631863
      2.624220     2.616577     2.608933     2.601290     2.593647     2.586004     2.578361     2.570717     2.563074     2.555431
      2.547788     2.540144     2.532501     2.524858     2.517215     2.509572     2.501928     2.494285     2.486642     2.478999
      2.471355     2.463712     2.456069     2.448426     2.440783     2.433139     2.425496     2.417853     2.410210     2.402566
      2.394923     2.387280     2.379637     2.371994     2.364350     2.356707     2.349064     2.341421     2.333777     2.326134
      2.318491     2.310848     2.303205     2.295561     2.287918     2.280275     2.272632     2.264988     2.257345     2.249702
      2.242059     2.234416     2.226772     2.219129     2.211486     2.203843     2.196199     2.188556     2.180913     2.173270
      2.165627     2.157983     2.150340     2.142697     2.135054     2.127410     2.119767     2.112124     2.104481     2.096838
      2.089194     2.081551     2.073908     2.066265     2.058621     2.050978     2.043335     2.035692     2.028049     2.020405
      2.012762     2.005119     1.997476     1.989833     1.982190     1.974546     1.966903     1.959260     1.951617     1.943974
      1.936331     1.928688     1.921045     1.913402     1.905759     1.898115     1.890472     1.882829     1.875186     1.867543
      1.859900     1.852257     1.844614     1.836971     1.829327     1.821684     1.814041     1.806398     1.798755     1.791112
      1.783469     1.775826     1.768183     1.760540     1.752896     1.745253     1.737610     1.729967     1.722324     1.714681
      1.707038     1.699395     1.691752     1.684108     1.676465     1.668822     1.661179     1.653536     1.645893     1.638250
      1.630607     1.622964     1.615321     1.607677     1.600034     1.592391     1.584748     1.577105     1.569462     1.561819
      1.554176     1.546533     1.538890     1.531246     1.523603     1.515960     1.508317     1.500674     1.493031     1.485388
      1.477745     1.470102     1.462458     1.454815     1.447172     1.439529     1.431886     1.424243     1.416600     1.408957
      1.401314     1.393671     1.386027     1.378384     1.370741     1.363098     1.355455     1.347812     1.340169     1.332526
      1.324883     1.317240     1.309596     1.301953     1.294310     1.286667     1.279024     1.271381     1.263738     1.256095
      1.248452     1.240808     1.233165     1.225522     1.217879     1.210236     1.202593     1.194950     1.187307     1.179664
      1.172021     1.164377     1.156734     1.149091     1.141448     1.133805     1.126162     1.118519     1.110876     1.103233
      1.095590     1.087946     1.080303     1.072660     1.065017     1.057374     1.049731     1.042088     1.034445     1.026802
      1.019158     1.011515     1.003872     0.996229     0.988586     0.980943     0.973300     0.965657     0.958014     0.950371
      0.942727     0.935084     0.927441     0.919798     0.912155     0.904512     0.896869     0.889226     0.881583     0.873940
      0.866296     0.858653     0.851010     0.843367     0.835724     0.828081     0.820438     0.812795     0.805152     0.797508
      0.789865     0.782222     0.774579     0.766936     0.759293     0.751650     0.744007     0.736364     0.728721     0.721077
      0.713434     0.705791     0.698148     0.690505     0.682862     0.675219     0.667576     0.659933     0.652290     0.644646
      0.637003     0.629360     0.621717     0.614074     0.606431     0.598788     0.591145     0.583502     0.575858     0.568215
      0.560572     0.552929     0.545286     0.537643     0.530000     0.522357     0.514714     0.507071     0.499427     0.491784
      0.484141     0.476498     0.468855     0.461212     0.453569     0.445925     0.438282     0.430639     0.422996     0.415353
      0.407710     0.400067     0.392424     0.384780     0.377137     0.369494     0.361851     0.354208     0.346565     0.338922
      0.331278     0.323635     0.315992     0.308349     0.300706     0.293063     0.285420     0.277777     0.270133     0.262490
      0.254847     0.247204     0.239561     0.231918     0.224275     0.216631     0.208988     0.201345
 NY phased data points follow
  -5.69925E+01 -5.45899E+01 -5.17984E+01 -5.28904E+01 -5.19086E+01 -5.07401E+01 -5.01275E+01 -4.69167E+01 -4.41073E+01 -4.43502E+01
  -4.35990E+01 -4.06763E+01 -4.12239E+01 -4.26321E+01 -4.33346E+01 -4.23563E+01 -4.45863E+01 -4.72847E+01 -4.57344E+01 -4.54007E+01
  -4.62335E+01 -4.62046E+01 -4.44551E+01 -4.28062E+01 -4.36021E+01 -4.10446E+01 -4.18203E+01 -4.00473E+01 -3.85844E+01 -3.65229E+01
  -3.77754E+01 -3.54677E+01 -3.83997E+01 -3.57020E+01 -3.93367E+01 -3.38700E+01 -3.67660E+01 -3.77825E+01 -3.72023E+01 -3.68943E+01
  -3.47143E+01 -3.39677E+01 -3.31363E+01 -3.19863E+01 -3.12859E+01 -3.12852E+01 -3.11753E+01 -3.05283E+01 -2.97689E+01 -2.74516E+01
  -3.07270E+01 -3.02354E+01 -3.05499E+01 -2.99218E+01 -2.86172E+01 -2.80881E+01 -3.02416E+01 -2.89435E+01 -2.66609E+01 -2.96812E+01
  -2.69189E+01 -2.62306E+01 -2.87768E+01 -2.72539E+01 -2.61410E+01 -2.90288E+01 -2.98693E+01 -2.90666E+01 -2.94240E+01 -2.58605E+01
  -2.81353E+01 -2.53629E+01 -2.56672E+01 -2.69073E+01 -2.57062E+01 -2.57880E+01 -2.49624E+01 -2.40517E+01 -2.40359E+01 -2.39182E+01
  -2.39059E+01 -2.34480E+01 -2.23754E+01 -2.42042E+01 -2.03716E+01 -2.29648E+01 -2.13318E+01 -2.21626E+01 -2.03169E+01 -2.06339E+01
  -1.90563E+01 -2.14163E+01 -1.96914E+01 -1.80080E+01 -2.08874E+01 -1.83603E+01 -1.93699E+01 -1.94050E+01 -1.68900E+01 -1.43243E+01
  -1.32928E+01 -8.84866E+00 -1.05090E+01 -7.78488E+00 -1.04937E+01 -8.34946E+00 -1.09875E+01 -1.15992E+01 -1.49803E+01 -1.62948E+01
  -1.50620E+01 -1.54585E+01 -1.78157E+01 -1.65789E+01 -1.71570E+01 -1.79520E+01 -1.59557E+01 -1.79650E+01 -1.33895E+01 -1.79236E+01
  -1.72884E+01 -1.09156E+01 -1.26103E+01 -1.17534E+01 -6.55082E+00 -3.01939E+00 -4.77809E+00 -3.53349E+00 -4.03252E+00 -4.94005E+00
  -5.97278E+00 -2.84335E+00 -7.71604E+00 -9.57274E+00 -1.06332E+01 -1.18475E+01 -1.38854E+01 -1.51405E+01 -1.35428E+01 -1.54746E+01
  -1.35893E+01 -1.40958E+01 -1.39649E+01 -1.15065E+01 -1.34099E+01 -1.28605E+01 -1.14777E+01 -1.15406E+01 -1.46824E+01 -1.36695E+01
  -1.24874E+01 -1.28387E+01 -1.38943E+01 -1.09413E+01 -1.16844E+01 -1.10391E+01 -1.12307E+01 -1.20356E+01 -1.08925E+01 -1.28664E+01
  -1.31244E+01 -1.35294E+01 -1.10201E+01 -1.28351E+01 -1.40859E+01 -1.12132E+01 -1.29313E+01 -1.45510E+01 -1.25082E+01 -1.39989E+01
  -1.26637E+01 -1.58138E+01 -1.12795E+01 -1.66089E+01 -1.31810E+01 -1.42252E+01 -1.36065E+01 -1.24506E+01 -1.21510E+01 -1.04105E+01
  -1.23356E+01 -1.23040E+01 -1.00705E+01 -1.18459E+01 -9.28399E+00 -1.14769E+01 -1.17426E+01 -9.10769E+00 -7.87561E+00 -8.44964E+00
  -7.34902E+00 -7.42348E+00 -7.87679E+00 -6.94585E+00 -5.62456E+00 -5.18966E+00 -8.01879E+00 -6.42842E+00 -5.76694E+00 -6.54670E+00
  -4.40215E+00 -4.08002E+00 -8.48285E+00 -4.15895E+00 -5.57589E+00 -6.02425E+00 -1.74145E+00 -7.78658E+00 -7.96379E+00 -4.30424E+00
  -5.66911E+00 -6.75310E+00 -4.85966E+00 -2.41055E+00 -4.57910E+00 -5.22007E-01 -3.10845E+00 -2.07094E+00 -3.89226E+00 -3.73843E+00
  -2.83198E+00 -6.01622E+00 -4.35627E+00 -5.22812E+00 -2.45402E+00 -1.44404E+00 -2.78366E+00 -1.73662E+00 -6.93963E-01 -7.04854E-01
  -5.80151E-01 -1.59625E+00 -1.70533E+00 -1.60873E+00  9.16207E-01  5.88668E-01  2.32677E+00 -3.59681E+00 -1.68838E+00 -2.78504E+00
  -2.04686E+00 -2.38234E+00  1.44227E+00 -1.74762E+00 -1.42192E+00  1.54727E-01  2.13446E+00  2.30879E+00  4.63335E+00  3.62156E+00
   3.05718E+00  4.11068E+00  4.99674E+00  5.65769E+00  9.83783E+00  1.33545E+01  1.42289E+01  1.92088E+01  2.49693E+01  2.90860E+01
   3.34744E+01  2.51875E+01  2.60681E+01  1.96039E+01  1.89047E+01  1.76911E+01  9.75272E+00  7.40889E+00  6.07720E+00  2.36449E+00
   2.07370E+00 -4.42940E-01  8.10022E-01  1.72325E+00  4.99802E-01  4.33831E-02  1.34417E-01 -2.59778E-02  1.79298E+00  2.04966E+00
   1.21827E+00  2.93115E+00  4.62515E+00  2.70297E+00  5.94389E-01  3.35645E+00 -1.09520E+00  1.80657E+00 -2.97833E+00  1.85957E-01
  -2.10612E+00  6.91556E-01  2.62943E+00 -9.21021E-01  1.23887E+00 -4.19896E-01  3.16841E+00  2.74800E+00  2.79286E+00  1.16240E+00
   1.55396E+00  2.84275E+00  2.54243E-01  1.86468E-01 -7.83218E-01  1.30075E+00 -1.43536E+00 -9.53000E-01  3.91527E+00  2.82399E+00
   3.41356E+00  5.01515E+00  6.52327E+00  5.74787E+00  5.02428E+00  4.58747E+00  5.73945E+00  3.02019E+00  7.58889E-01  2.84879E+00
   2.69227E+00  2.85601E+00 -1.56537E+00 -1.99250E+00 -3.02828E+00 -6.03254E-01  6.88483E-02  1.19157E+00  2.39492E-01  1.72382E+00
   2.13731E+00  2.28720E+00  1.71812E+00  8.09137E-02  2.13146E+00  5.27839E+00  4.38394E+00  4.84698E+00  1.73088E+00  1.83458E+00
  -8.13196E-01  6.48127E-01  2.76794E+00  2.90393E+00  4.41300E+00  3.93458E+00  6.36599E+00  4.24320E+00  4.25062E+00  6.61161E+00
   4.61545E+00  3.60075E+00  3.42208E+00  3.15622E+00  2.35886E+00  3.15307E-01  1.64770E+00  7.86629E-01  2.54741E+00  1.08174E+00
   3.39710E+00  8.63769E-01 -1.63801E-01  2.78686E+00  2.96988E+00  4.57974E+00  3.23144E+00  7.72226E-01 -5.53414E-01  5.35444E-01
   9.03650E-01  1.05155E-01  1.69486E+00 -1.10686E-02  4.84976E+00  1.61235E+00  3.57147E+00  3.39774E+00  3.63043E+00  3.34585E+00
   1.92104E+00  3.82366E+00  2.37853E+00  2.09855E+00  1.28356E+00 -1.62459E+00  1.42683E+00  3.53805E+00  2.09598E+00  1.71941E+00
   8.05520E-01 -7.20165E-01  4.62012E-01  3.97265E-01  1.84932E-01 -5.77819E-01  9.99832E-01  9.37863E-01  3.92835E+00  4.50243E+00
   5.23013E+00  2.04332E+00  4.82704E+00  2.99748E+00  3.15457E+00  3.00187E+00  3.72334E+00  4.26218E+00  4.00107E+00  4.66920E+00
   5.69774E+00  5.32761E+00  5.01248E+00  4.53254E+00  3.57153E+00  6.74455E+00  2.42979E+00  2.67679E+00  1.79032E+00  4.93847E+00
   3.18524E+00  3.27784E+00  1.57460E+00  5.16549E+00  7.58343E-01  4.15771E+00  4.25661E+00  3.00760E+00  3.74025E+00  1.18642E+00
   1.01230E+00  2.90283E-01  2.09752E+00  2.07764E+00  5.39797E+00  3.05657E+00  2.96592E+00  3.22635E+00  1.19387E+00  1.99565E+00
   4.35743E+00  3.30729E+00 -2.87654E-01  1.56985E+00  3.44015E+00  2.24872E+00  1.13387E+00  2.12064E+00  2.37325E+00  2.04759E+00
   2.91661E+00  4.64908E+00  3.83400E+00  3.39773E+00  2.78767E+00  1.38864E+00  4.56341E+00  3.71430E+00  3.59536E+00  3.19635E+00
   2.24947E+00  1.10072E+00  5.19773E+00  5.12137E+00  2.38170E+00  1.76860E+00  4.99221E+00  4.40641E+00  4.05201E+00  8.39017E-01
   1.98765E+00  3.63170E+00  1.81385E+00  5.06022E-01  2.32982E+00  3.52851E+00  1.91531E+00  3.17879E+00  3.48378E+00  3.03539E+00
   2.91485E+00  4.20411E+00  3.39246E+00  3.61047E+00  4.83768E+00  2.20477E+00  3.61832E+00  4.55545E+00  4.97005E+00  4.69792E+00
   4.40119E+00  2.30496E+00  2.45153E+00  3.94377E+00  2.72275E+00  3.07777E+00  4.02391E+00  1.50734E+00
 NY points of the fit to the data follow
  -5.11444E+01 -5.13002E+01 -5.11929E+01 -5.07408E+01 -5.00851E+01 -4.93593E+01 -4.84988E+01 -4.73006E+01 -4.57014E+01 -4.40916E+01
  -4.30053E+01 -4.26087E+01 -4.26355E+01 -4.26658E+01 -4.26461E+01 -4.28065E+01 -4.32408E+01 -4.37131E+01 -4.39994E+01 -4.41376E+01
  -4.41991E+01 -4.41150E+01 -4.37464E+01 -4.31836E+01 -4.25432E+01 -4.18739E+01 -4.10015E+01 -3.98320E+01 -3.85791E+01 -3.75321E+01
  -3.68584E+01 -3.64984E+01 -3.62896E+01 -3.61234E+01 -3.61194E+01 -3.64207E+01 -3.68114E+01 -3.70945E+01 -3.72397E+01 -3.70766E+01
  -3.64620E+01 -3.56283E+01 -3.47141E+01 -3.34778E+01 -3.18596E+01 -3.03722E+01 -2.95863E+01 -2.95799E+01 -3.00201E+01 -3.05057E+01
  -3.08589E+01 -3.12398E+01 -3.17189E+01 -3.20335E+01 -3.20238E+01 -3.17814E+01 -3.13368E+01 -3.06430E+01 -2.98710E+01 -2.92948E+01
  -2.90085E+01 -2.89082E+01 -2.88259E+01 -2.86808E+01 -2.84904E+01 -2.82405E+01 -2.79488E+01 -2.76170E+01 -2.71776E+01 -2.66347E+01
  -2.60885E+01 -2.56179E+01 -2.52150E+01 -2.48550E+01 -2.45760E+01 -2.44272E+01 -2.44266E+01 -2.44859E+01 -2.44393E+01 -2.41760E+01
  -2.38674E+01 -2.35952E+01 -2.32718E+01 -2.27835E+01 -2.22363E+01 -2.18490E+01 -2.17370E+01 -2.18391E+01 -2.19023E+01 -2.18261E+01
  -2.17000E+01 -2.17024E+01 -2.18156E+01 -2.17994E+01 -2.15241E+01 -2.08086E+01 -1.97028E+01 -1.83852E+01 -1.69590E+01 -1.49323E+01
  -1.22350E+01 -9.75528E+00 -8.42178E+00 -8.49083E+00 -9.33501E+00 -1.02275E+01 -1.09523E+01 -1.20093E+01 -1.36856E+01 -1.52615E+01
  -1.63227E+01 -1.71895E+01 -1.79415E+01 -1.82101E+01 -1.81745E+01 -1.80522E+01 -1.78977E+01 -1.77096E+01 -1.73829E+01 -1.66175E+01
  -1.53830E+01 -1.39508E+01 -1.24195E+01 -1.03529E+01 -7.49518E+00 -4.61519E+00 -2.82676E+00 -2.60045E+00 -3.38496E+00 -4.37337E+00
  -5.21697E+00 -6.27765E+00 -8.08448E+00 -1.01290E+01 -1.16831E+01 -1.28715E+01 -1.38676E+01 -1.42861E+01 -1.42122E+01 -1.40206E+01
  -1.37924E+01 -1.35701E+01 -1.33820E+01 -1.31968E+01 -1.30159E+01 -1.28832E+01 -1.28103E+01 -1.27875E+01 -1.27872E+01 -1.27837E+01
  -1.27712E+01 -1.27480E+01 -1.26980E+01 -1.26391E+01 -1.25782E+01 -1.25024E+01 -1.24143E+01 -1.23487E+01 -1.23442E+01 -1.23698E+01
  -1.23485E+01 -1.22220E+01 -1.20149E+01 -1.18331E+01 -1.17576E+01 -1.17653E+01 -1.17617E+01 -1.17268E+01 -1.17030E+01 -1.17075E+01
  -1.17238E+01 -1.17391E+01 -1.17655E+01 -1.18470E+01 -1.19263E+01 -1.18653E+01 -1.16592E+01 -1.14384E+01 -1.13187E+01 -1.12881E+01
  -1.12213E+01 -1.09997E+01 -1.06761E+01 -1.03968E+01 -1.01670E+01 -9.85398E+00 -9.36891E+00 -8.75237E+00 -8.11132E+00 -7.55676E+00
  -7.14646E+00 -6.88051E+00 -6.70095E+00 -6.57139E+00 -6.51877E+00 -6.52281E+00 -6.50067E+00 -6.41618E+00 -6.24308E+00 -5.99375E+00
  -5.69718E+00 -5.36579E+00 -5.04486E+00 -4.79959E+00 -4.72497E+00 -4.83415E+00 -5.05387E+00 -5.27864E+00 -5.43371E+00 -5.50682E+00
  -5.48565E+00 -5.33218E+00 -4.97267E+00 -4.44400E+00 -3.95212E+00 -3.70339E+00 -3.75445E+00 -3.96928E+00 -4.21450E+00 -4.50077E+00
  -4.84406E+00 -5.06114E+00 -4.93841E+00 -4.54472E+00 -4.11065E+00 -3.72663E+00 -3.29304E+00 -2.79888E+00 -2.36538E+00 -2.07066E+00
  -1.83199E+00 -1.53348E+00 -1.22855E+00 -9.95102E-01 -8.01198E-01 -6.37524E-01 -5.37831E-01 -5.28391E-01 -6.01847E-01 -7.02651E-01
  -7.52235E-01 -7.10719E-01 -5.75223E-01 -3.38201E-01 -2.08581E-02  3.21314E-01  6.24378E-01  9.39025E-01  1.38662E+00  1.93096E+00
   2.49971E+00  3.20594E+00  4.63105E+00  7.18948E+00  1.01833E+01  1.29468E+01  1.58789E+01  2.01790E+01  2.53406E+01  2.91458E+01
   2.98734E+01  2.77735E+01  2.47315E+01  2.20078E+01  1.94280E+01  1.58414E+01  1.14727E+01  7.98275E+00  5.51890E+00  3.25934E+00
   1.55960E+00  1.01416E+00  8.71609E-01  8.05886E-01  7.66619E-01  7.34146E-01  6.98832E-01  6.68375E-01  6.36457E-01  5.98325E-01
   5.61615E-01  5.35880E-01  5.19140E-01  5.08304E-01  5.06234E-01  5.16693E-01  5.39318E-01  5.67990E-01  6.01426E-01  6.45364E-01
   7.01369E-01  7.62890E-01  8.27835E-01  8.98875E-01  9.77182E-01  1.06186E+00  1.15272E+00  1.24807E+00  1.34826E+00  1.45467E+00
   1.56491E+00  1.67483E+00  1.78263E+00  1.88688E+00  1.98541E+00  2.07464E+00  2.15183E+00  2.21593E+00  2.26571E+00  2.29957E+00
   2.31799E+00  2.32207E+00  2.31312E+00  2.29306E+00  2.26411E+00  2.22861E+00  2.18917E+00  2.14846E+00  2.10915E+00  2.07363E+00
   2.04390E+00  2.02154E+00  2.00788E+00  2.00382E+00  2.00974E+00  2.02549E+00  2.05055E+00  2.08408E+00  2.12507E+00  2.17226E+00
   2.22420E+00  2.27926E+00  2.33583E+00  2.39237E+00  2.44748E+00  2.49986E+00  2.54833E+00  2.59183E+00  2.62960E+00  2.66113E+00
   2.68617E+00  2.70462E+00  2.71657E+00  2.72221E+00  2.72198E+00  2.71645E+00  2.70626E+00  2.69203E+00  2.67434E+00  2.65372E+00
   2.63076E+00  2.60596E+00  2.57971E+00  2.55225E+00  2.52372E+00  2.49421E+00  2.46382E+00  2.43256E+00  2.40040E+00  2.36723E+00
   2.33297E+00  2.29761E+00  2.26123E+00  2.22389E+00  2.18571E+00  2.14680E+00  2.10741E+00  2.06784E+00  2.02851E+00  1.98979E+00
   1.95208E+00  1.91580E+00  1.88143E+00  1.84948E+00  1.82045E+00  1.79480E+00  1.77296E+00  1.75537E+00  1.74250E+00  1.73483E+00
   1.73285E+00  1.73699E+00  1.74770E+00  1.76551E+00  1.79100E+00  1.82477E+00  1.86743E+00  1.91957E+00  1.98178E+00  2.05465E+00
   2.13872E+00  2.23439E+00  2.34182E+00  2.46092E+00  2.59134E+00  2.73234E+00  2.88280E+00  3.04108E+00  3.20504E+00  3.37205E+00
   3.53912E+00  3.70290E+00  3.85978E+00  4.00601E+00  4.13786E+00  4.25185E+00  4.34492E+00  4.41459E+00  4.45901E+00  4.47710E+00
   4.46865E+00  4.43434E+00  4.37572E+00  4.29504E+00  4.19520E+00  4.07950E+00  3.95158E+00  3.81519E+00  3.67408E+00  3.53174E+00
   3.39132E+00  3.25554E+00  3.12665E+00  3.00643E+00  2.89616E+00  2.79661E+00  2.70812E+00  2.63067E+00  2.56397E+00  2.50754E+00
   2.46073E+00  2.42274E+00  2.39273E+00  2.36986E+00  2.35336E+00  2.34247E+00  2.33650E+00  2.33478E+00  2.33672E+00  2.34182E+00
   2.34967E+00  2.35990E+00  2.37217E+00  2.38616E+00  2.40163E+00  2.41837E+00  2.43625E+00  2.45510E+00  2.47476E+00  2.49511E+00
   2.51604E+00  2.53748E+00  2.55938E+00  2.58166E+00  2.60424E+00  2.62708E+00  2.65015E+00  2.67345E+00  2.69696E+00  2.72063E+00
   2.74443E+00  2.76833E+00  2.79234E+00  2.81647E+00  2.84070E+00  2.86499E+00  2.88932E+00  2.91370E+00  2.93813E+00  2.96263E+00
   2.98718E+00  3.01174E+00  3.03630E+00  3.06090E+00  3.08553E+00  3.11020E+00  3.13489E+00  3.15957E+00  3.18425E+00  3.20896E+00
   3.23370E+00  3.25847E+00  3.28324E+00  3.30801E+00  3.33278E+00  3.35760E+00  3.38245E+00  3.40733E+00  3.43221E+00  3.45710E+00
   3.48203E+00  3.50702E+00  3.53206E+00  3.55713E+00  3.58223E+00  3.60738E+00  3.63261E+00  3.65794E+00
 NY background values follow
    -5.392E+01   -5.355E+01   -5.318E+01   -5.281E+01   -5.244E+01   -5.206E+01   -5.169E+01   -5.132E+01   -5.094E+01   -5.057E+01
    -5.020E+01   -4.983E+01   -4.946E+01   -4.908E+01   -4.871E+01   -4.834E+01   -4.797E+01   -4.760E+01   -4.723E+01   -4.686E+01
    -4.650E+01   -4.613E+01   -4.576E+01   -4.540E+01   -4.503E+01   -4.467E+01   -4.430E+01   -4.394E+01   -4.358E+01   -4.322E+01
    -4.286E+01   -4.250E+01   -4.214E+01   -4.178E+01   -4.143E+01   -4.107E+01   -4.072E+01   -4.037E+01   -4.002E+01   -3.967E+01
    -3.932E+01   -3.898E+01   -3.863E+01   -3.829E+01   -3.795E+01   -3.761E+01   -3.727E+01   -3.694E+01   -3.660E+01   -3.627E+01
    -3.594E+01   -3.561E+01   -3.528E+01   -3.496E+01   -3.463E+01   -3.431E+01   -3.399E+01   -3.368E+01   -3.336E+01   -3.305E+01
    -3.273E+01   -3.242E+01   -3.212E+01   -3.181E+01   -3.151E+01   -3.120E+01   -3.090E+01   -3.061E+01   -3.031E+01   -3.002E+01
    -2.972E+01   -2.944E+01   -2.915E+01   -2.886E+01   -2.858E+01   -2.830E+01   -2.802E+01   -2.774E+01   -2.747E+01   -2.720E+01
    -2.693E+01   -2.666E+01   -2.639E+01   -2.613E+01   -2.587E+01   -2.561E+01   -2.536E+01   -2.510E+01   -2.485E+01   -2.460E+01
    -2.436E+01   -2.411E+01   -2.387E+01   -2.363E+01   -2.339E+01   -2.316E+01   -2.293E+01   -2.270E+01   -2.247E+01   -2.224E+01
    -2.202E+01   -2.180E+01   -2.158E+01   -2.136E+01   -2.115E+01   -2.094E+01   -2.073E+01   -2.052E+01   -2.031E+01   -2.011E+01
    -1.991E+01   -1.971E+01   -1.951E+01   -1.931E+01   -1.912E+01   -1.892E+01   -1.873E+01   -1.855E+01   -1.836E+01   -1.817E+01
    -1.799E+01   -1.781E+01   -1.763E+01   -1.745E+01   -1.728E+01   -1.710E+01   -1.693E+01   -1.676E+01   -1.659E+01   -1.642E+01
    -1.625E+01   -1.609E+01   -1.593E+01   -1.576E+01   -1.560E+01   -1.545E+01   -1.529E+01   -1.513E+01   -1.498E+01   -1.482E+01
    -1.467E+01   -1.452E+01   -1.437E+01   -1.423E+01   -1.408E+01   -1.393E+01   -1.379E+01   -1.365E+01   -1.350E+01   -1.336E+01
    -1.322E+01   -1.308E+01   -1.294E+01   -1.281E+01   -1.267E+01   -1.254E+01   -1.240E+01   -1.227E+01   -1.213E+01   -1.200E+01
    -1.187E+01   -1.174E+01   -1.161E+01   -1.148E+01   -1.135E+01   -1.122E+01   -1.109E+01   -1.097E+01   -1.084E+01   -1.071E+01
    -1.059E+01   -1.046E+01   -1.034E+01   -1.021E+01   -1.009E+01   -9.960E+00   -9.836E+00   -9.712E+00   -9.588E+00   -9.464E+00
    -9.340E+00   -9.216E+00   -9.092E+00   -8.969E+00   -8.845E+00   -8.722E+00   -8.598E+00   -8.475E+00   -8.352E+00   -8.229E+00
    -8.107E+00   -7.985E+00   -7.863E+00   -7.741E+00   -7.620E+00   -7.499E+00   -7.378E+00   -7.258E+00   -7.139E+00   -7.020E+00
    -6.901E+00   -6.783E+00   -6.665E+00   -6.548E+00   -6.432E+00   -6.316E+00   -6.201E+00   -6.086E+00   -5.972E+00   -5.859E+00
    -5.747E+00   -5.635E+00   -5.524E+00   -5.414E+00   -5.305E+00   -5.197E+00   -5.089E+00   -4.983E+00   -4.877E+00   -4.773E+00
    -4.669E+00   -4.567E+00   -4.465E+00   -4.365E+00   -4.265E+00   -4.167E+00   -4.070E+00   -3.974E+00   -3.879E+00   -3.786E+00
    -3.693E+00   -3.602E+00   -3.512E+00   -3.422E+00   -3.335E+00   -3.248E+00   -3.162E+00   -3.078E+00   -2.994E+00   -2.912E+00
    -2.831E+00   -2.751E+00   -2.672E+00   -2.594E+00   -2.517E+00   -2.442E+00   -2.367E+00   -2.294E+00   -2.221E+00   -2.150E+00
    -2.080E+00   -2.011E+00   -1.943E+00   -1.876E+00   -1.810E+00   -1.745E+00   -1.681E+00   -1.618E+00   -1.557E+00   -1.496E+00
    -1.437E+00   -1.378E+00   -1.320E+00   -1.264E+00   -1.209E+00   -1.154E+00   -1.101E+00   -1.048E+00   -9.969E-01   -9.466E-01
    -8.972E-01   -8.489E-01   -8.016E-01   -7.552E-01   -7.098E-01   -6.654E-01   -6.220E-01   -5.795E-01   -5.379E-01   -4.972E-01
    -4.575E-01   -4.187E-01   -3.807E-01   -3.436E-01   -3.074E-01   -2.721E-01   -2.375E-01   -2.039E-01   -1.710E-01   -1.390E-01
    -1.077E-01   -7.724E-02   -4.754E-02   -1.862E-02    9.560E-03    3.699E-02    6.370E-02    8.969E-02    1.150E-01    1.395E-01
     1.634E-01    1.867E-01    2.092E-01    2.311E-01    2.524E-01    2.731E-01    2.931E-01    3.125E-01    3.313E-01    3.496E-01
     3.673E-01    3.844E-01    4.009E-01    4.170E-01    4.325E-01    4.475E-01    4.619E-01    4.759E-01    4.894E-01    5.025E-01
     5.151E-01    5.272E-01    5.389E-01    5.503E-01    5.612E-01    5.717E-01    5.818E-01    5.916E-01    6.010E-01    6.101E-01
     6.188E-01    6.273E-01    6.354E-01    6.432E-01    6.508E-01    6.581E-01    6.652E-01    6.720E-01    6.786E-01    6.850E-01
     6.912E-01    6.972E-01    7.031E-01    7.088E-01    7.143E-01    7.197E-01    7.250E-01    7.301E-01    7.352E-01    7.402E-01
     7.451E-01    7.500E-01    7.548E-01    7.596E-01    7.644E-01    7.692E-01    7.739E-01    7.787E-01    7.836E-01    7.884E-01
     7.934E-01    7.984E-01    8.035E-01    8.087E-01    8.139E-01    8.194E-01    8.249E-01    8.305E-01    8.364E-01    8.423E-01
     8.484E-01    8.547E-01    8.612E-01    8.679E-01    8.748E-01    8.818E-01    8.892E-01    8.967E-01    9.045E-01    9.125E-01
     9.208E-01    9.294E-01    9.382E-01    9.473E-01    9.568E-01    9.665E-01    9.766E-01    9.869E-01    9.977E-01    1.009E+00
     1.020E+00    1.032E+00    1.044E+00    1.057E+00    1.070E+00    1.083E+00    1.097E+00    1.111E+00    1.126E+00    1.141E+00
     1.156E+00    1.172E+00    1.189E+00    1.206E+00    1.223E+00    1.241E+00    1.260E+00    1.279E+00    1.298E+00    1.318E+00
     1.339E+00    1.360E+00    1.381E+00    1.403E+00    1.425E+00    1.448E+00    1.471E+00    1.495E+00    1.519E+00    1.543E+00
     1.568E+00    1.593E+00    1.618E+00    1.644E+00    1.670E+00    1.696E+00    1.723E+00    1.749E+00    1.776E+00    1.804E+00
     1.831E+00    1.859E+00    1.886E+00    1.914E+00    1.942E+00    1.971E+00    1.999E+00    2.028E+00    2.056E+00    2.085E+00
     2.113E+00    2.142E+00    2.171E+00    2.200E+00    2.229E+00    2.257E+00    2.286E+00    2.315E+00    2.344E+00    2.372E+00
     2.401E+00    2.429E+00    2.458E+00    2.486E+00    2.514E+00    2.542E+00    2.570E+00    2.598E+00    2.625E+00    2.653E+00
     2.680E+00    2.708E+00    2.735E+00    2.762E+00    2.789E+00    2.816E+00    2.843E+00    2.870E+00    2.897E+00    2.923E+00
     2.950E+00    2.976E+00    3.003E+00    3.029E+00    3.056E+00    3.082E+00    3.108E+00    3.134E+00    3.160E+00    3.186E+00
     3.212E+00    3.238E+00    3.264E+00    3.290E+00    3.315E+00    3.341E+00    3.367E+00    3.392E+00    3.418E+00    3.444E+00
     3.469E+00    3.495E+00    3.520E+00    3.546E+00    3.571E+00    3.597E+00    3.622E+00    3.647E+00
 Asp      Conc. = 4.10E+01
