 LCModel (Version 6.3-1L) Copyright: S.W. Provencher.          Ref.: Magn. Reson. Med. 30:672-679 (1993).                
 Slice#1 Row#8 Col#14  K_02_press_1_raw_act
 36 lines in following concentration table = NCONC+1
    Conc.  %SD /Cr+PCr  Metabolite                                         
  132.780 113%   2.223 Ala                                                 
   12.694  89%   0.213 Asp                                                 
    0.000 999%   0.000 Cr                                                  
   59.729  50%   1.000 PCr                                                 
    6.933  97%   0.116 GABA                                                
    7.604  89%   0.127 Glc                                                 
    0.000 999%   0.000 Gln                                                 
 1.74E+03  23%  29.132 Glu                                                 
    0.000 999%   0.000 GPC                                                 
   34.763  33%   0.582 PCh                                                 
    0.000 999%   0.000 GSH                                                 
    0.000 999%   0.000 Ins                                                 
    0.000 999%   0.000 Lac                                                 
   79.609  47%   1.333 NAA                                                 
    0.000 999%   0.000 NAAG                                                
    2.858  78% 4.8E-02 Scyllo                                              
   14.000  80%   0.234 Tau                                                 
   17.904 110%   0.300 -CrCH2                                              
   34.763  33%   0.582 GPC+PCh                                             
   79.609  47%   1.333 NAA+NAAG                                            
   59.729  50%   1.000 Cr+PCr                                              
 1.74E+03  23%  29.132 Glu+Gln                                             
 6.58E+03  18% 110.086 Lip13a                                              
    0.000 999%   0.000 Lip13b                                              
 2.60E+03  14%  43.523 Lip09                                               
 2.56E+03  16%  42.794 MM09                                                
 2.43E+03  14%  40.754+Lip20                                               
  214.681 102%   3.594 MM20                                                
 1.58E+03  28%  26.415 MM12                                                
  774.807  34%  12.972 MM14                                                
    0.000 999%   0.000 MM17                                                
 6.58E+03  18% 110.086 Lip13a+Lip13b                                       
 8.93E+03  10% 149.473 MM14+Lip13a+Lip13b+MM12                             
 5.16E+03   8%  86.318 MM09+Lip09                                          
 2.65E+03  11%  44.348 MM20+Lip20                                          
   6 lines in following misc. output table
  FWHM = 0.107 ppm    S/N =  10                                            
  Data shift = 0.214 ppm                                                   
  Ph: -53 deg     -10.2 deg/ppm                                            
  alphaB,S = 1.6E+01,   8.7E+01                                            
    7 spline knots.   Ns = 9(2)                                            
  (11) 2 infls.   (10) 1 extrs.                                            
  498 points on ppm-axis = NY
      4.000000     3.992357     3.984714     3.977070     3.969427     3.961784     3.954141     3.946497     3.938854     3.931211
      3.923568     3.915925     3.908281     3.900638     3.892995     3.885352     3.877708     3.870065     3.862422     3.854779
      3.847136     3.839492     3.831849     3.824206     3.816563     3.808919     3.801276     3.793633     3.785990     3.778347
      3.770703     3.763060     3.755417     3.747774     3.740130     3.732487     3.724844     3.717201     3.709558     3.701914
      3.694271     3.686628     3.678985     3.671341     3.663698     3.656055     3.648412     3.640769     3.633125     3.625482
      3.617839     3.610196     3.602552     3.594909     3.587266     3.579623     3.571980     3.564336     3.556693     3.549050
      3.541407     3.533763     3.526120     3.518477     3.510834     3.503191     3.495547     3.487904     3.480261     3.472618
      3.464974     3.457331     3.449688     3.442045     3.434402     3.426758     3.419115     3.411472     3.403829     3.396185
      3.388542     3.380899     3.373256     3.365613     3.357969     3.350326     3.342683     3.335040     3.327396     3.319753
      3.312110     3.304467     3.296824     3.289180     3.281537     3.273894     3.266251     3.258607     3.250964     3.243321
      3.235678     3.228034     3.220391     3.212748     3.205105     3.197462     3.189818     3.182175     3.174532     3.166889
      3.159245     3.151602     3.143959     3.136316     3.128673     3.121029     3.113386     3.105743     3.098100     3.090456
      3.082813     3.075170     3.067527     3.059884     3.052240     3.044597     3.036954     3.029311     3.021667     3.014024
      3.006381     2.998738     2.991095     2.983451     2.975808     2.968165     2.960522     2.952878     2.945235     2.937592
      2.929949     2.922306     2.914662     2.907019     2.899376     2.891733     2.884089     2.876446     2.868803     2.861160
      2.853517     2.845873     2.838230     2.830587     2.822944     2.815300     2.807657     2.800014     2.792371     2.784728
      2.777084     2.769441     2.761798     2.754155     2.746511     2.738868     2.731225     2.723582     2.715939     2.708295
      2.700652     2.693009     2.685366     2.677722     2.670079     2.662436     2.654793     2.647150     2.639506     2.631863
      2.624220     2.616577     2.608933     2.601290     2.593647     2.586004     2.578361     2.570717     2.563074     2.555431
      2.547788     2.540144     2.532501     2.524858     2.517215     2.509572     2.501928     2.494285     2.486642     2.478999
      2.471355     2.463712     2.456069     2.448426     2.440783     2.433139     2.425496     2.417853     2.410210     2.402566
      2.394923     2.387280     2.379637     2.371994     2.364350     2.356707     2.349064     2.341421     2.333777     2.326134
      2.318491     2.310848     2.303205     2.295561     2.287918     2.280275     2.272632     2.264988     2.257345     2.249702
      2.242059     2.234416     2.226772     2.219129     2.211486     2.203843     2.196199     2.188556     2.180913     2.173270
      2.165627     2.157983     2.150340     2.142697     2.135054     2.127410     2.119767     2.112124     2.104481     2.096838
      2.089194     2.081551     2.073908     2.066265     2.058621     2.050978     2.043335     2.035692     2.028049     2.020405
      2.012762     2.005119     1.997476     1.989833     1.982190     1.974546     1.966903     1.959260     1.951617     1.943974
      1.936331     1.928688     1.921045     1.913402     1.905759     1.898115     1.890472     1.882829     1.875186     1.867543
      1.859900     1.852257     1.844614     1.836971     1.829327     1.821684     1.814041     1.806398     1.798755     1.791112
      1.783469     1.775826     1.768183     1.760540     1.752896     1.745253     1.737610     1.729967     1.722324     1.714681
      1.707038     1.699395     1.691752     1.684108     1.676465     1.668822     1.661179     1.653536     1.645893     1.638250
      1.630607     1.622964     1.615321     1.607677     1.600034     1.592391     1.584748     1.577105     1.569462     1.561819
      1.554176     1.546533     1.538890     1.531246     1.523603     1.515960     1.508317     1.500674     1.493031     1.485388
      1.477745     1.470102     1.462458     1.454815     1.447172     1.439529     1.431886     1.424243     1.416600     1.408957
      1.401314     1.393671     1.386027     1.378384     1.370741     1.363098     1.355455     1.347812     1.340169     1.332526
      1.324883     1.317240     1.309596     1.301953     1.294310     1.286667     1.279024     1.271381     1.263738     1.256095
      1.248452     1.240808     1.233165     1.225522     1.217879     1.210236     1.202593     1.194950     1.187307     1.179664
      1.172021     1.164377     1.156734     1.149091     1.141448     1.133805     1.126162     1.118519     1.110876     1.103233
      1.095590     1.087946     1.080303     1.072660     1.065017     1.057374     1.049731     1.042088     1.034445     1.026802
      1.019158     1.011515     1.003872     0.996229     0.988586     0.980943     0.973300     0.965657     0.958014     0.950371
      0.942727     0.935084     0.927441     0.919798     0.912155     0.904512     0.896869     0.889226     0.881583     0.873940
      0.866296     0.858653     0.851010     0.843367     0.835724     0.828081     0.820438     0.812795     0.805152     0.797508
      0.789865     0.782222     0.774579     0.766936     0.759293     0.751650     0.744007     0.736364     0.728721     0.721077
      0.713434     0.705791     0.698148     0.690505     0.682862     0.675219     0.667576     0.659933     0.652290     0.644646
      0.637003     0.629360     0.621717     0.614074     0.606431     0.598788     0.591145     0.583502     0.575858     0.568215
      0.560572     0.552929     0.545286     0.537643     0.530000     0.522357     0.514714     0.507071     0.499427     0.491784
      0.484141     0.476498     0.468855     0.461212     0.453569     0.445925     0.438282     0.430639     0.422996     0.415353
      0.407710     0.400067     0.392424     0.384780     0.377137     0.369494     0.361851     0.354208     0.346565     0.338922
      0.331278     0.323635     0.315992     0.308349     0.300706     0.293063     0.285420     0.277777     0.270133     0.262490
      0.254847     0.247204     0.239561     0.231918     0.224275     0.216631     0.208988     0.201345
 NY phased data points follow
   4.84211E+00  3.89505E+00  4.06781E+00  5.74574E+00  3.71583E+00  5.42256E+00  4.00219E+00  3.72693E+00  2.85034E+00  4.71212E+00
   5.20489E+00  6.28353E+00  4.53808E+00  4.55215E+00  7.75592E+00  1.84920E+00  4.67629E+00  5.34597E+00  5.35642E+00  5.97905E+00
   4.95020E+00  4.16610E+00  3.58195E+00  4.06797E+00  4.53701E+00  5.46398E+00  4.54952E+00  5.53124E+00  5.32514E+00  4.46348E+00
   2.93696E+00  2.84436E+00  5.06428E+00  7.03497E+00  4.22863E+00  4.83359E+00  5.27233E+00  4.53843E+00  4.86589E+00  4.75121E+00
   4.28155E+00  4.99082E+00  5.33081E+00  3.48981E+00  6.93708E+00  5.47687E+00  3.68493E+00  5.06982E+00  5.61417E+00  2.33555E+00
   4.72396E+00  4.71962E+00  2.16873E+00  3.84787E+00  3.34746E+00  1.63135E+00  3.80638E+00  5.80281E+00  5.53761E+00  3.65142E+00
   3.81528E+00  3.89001E+00  5.57303E+00  2.71126E+00  3.14882E+00  3.74157E+00  3.56351E+00  3.05383E+00  3.86120E+00  5.27283E+00
   2.20542E+00  4.19261E+00  3.15139E+00  4.72500E+00  3.71958E+00  3.90241E+00  4.91244E+00  3.60219E+00  5.10416E+00  4.76722E+00
   4.95063E+00  2.71336E+00  5.21177E+00  5.13433E+00  3.64177E+00  4.08176E+00  5.94902E+00  5.52793E+00  5.90369E+00  3.61042E+00
   5.96815E+00  4.60751E+00  4.20461E+00  4.33588E+00  5.23957E+00  4.54467E+00  4.97892E+00  2.01183E+00  4.65611E+00  4.31115E+00
   1.01490E+00  3.47808E+00  4.84899E+00  3.26135E+00  3.74894E+00  4.43293E+00  4.50901E+00  3.21594E+00  5.48678E+00  6.11946E+00
   5.85295E+00  6.26092E+00  4.22425E+00  4.02601E+00  6.09014E+00  6.29130E+00  5.34657E+00  5.17104E+00  5.07659E+00  5.01321E+00
   5.14957E+00  4.84491E+00  4.56917E+00  4.96917E+00  3.65342E+00  5.91158E+00  4.10147E+00  3.30420E+00  4.96080E+00  6.33839E+00
   7.87842E+00  6.21644E+00  4.55839E+00  6.41779E+00  4.33972E+00  4.69866E+00  5.05708E+00  5.81114E+00  4.89791E+00  6.20335E+00
   4.28547E+00  6.83219E+00  6.06352E+00  5.62161E+00  2.93491E+00  4.56063E+00  4.81138E+00  3.85633E+00  4.23234E+00  4.66491E+00
   5.22161E+00  7.18065E+00  7.28948E+00  4.49781E+00  4.36073E+00  5.08811E+00  4.19428E+00  3.84785E+00  3.49101E+00  5.37754E+00
   4.24437E+00  5.08801E+00  4.29013E+00  4.98542E+00  4.57441E+00  5.67528E+00  4.97275E+00  3.13490E+00  3.96425E+00  6.09148E+00
   3.95102E+00  5.59039E+00  3.17541E+00  1.21619E+00  4.90489E+00  2.44080E+00  3.42095E+00  4.95265E+00  4.19658E+00  3.87798E+00
   6.31690E+00  2.62971E+00  4.20770E+00  5.23789E+00  3.92091E+00  2.96830E+00  5.37977E+00  4.03813E+00  4.55776E+00  5.49008E-01
   4.68912E+00  2.61886E+00  3.88052E+00  3.95697E+00  3.99758E+00  5.40159E+00  4.22920E+00  4.98113E+00  2.58086E+00  6.65582E+00
   5.07339E+00  4.67475E+00  3.91607E+00  5.98402E+00  4.50593E+00  5.42018E+00  4.75237E+00  5.36402E+00  4.94440E+00  4.67043E+00
   4.78627E+00  4.13726E+00  4.09621E+00  6.35573E+00  6.28586E+00  5.41542E+00  6.91413E+00  6.89964E+00  5.89086E+00  4.61491E+00
   6.43145E+00  3.98782E+00  6.45459E+00  5.02079E+00  6.47996E+00  7.91192E+00  5.83681E+00  3.50958E+00  3.74445E+00  1.97079E+00
   4.44679E+00  4.14070E+00  2.89641E+00 -1.31203E+00  3.07668E-01  1.87622E+00  4.22734E+00  5.18503E+00  7.12055E+00  7.81106E+00
   9.33757E+00  5.51934E+00  7.70055E+00  7.16722E+00  5.51400E+00  5.09053E+00  7.90273E+00  6.95047E+00  8.25698E+00  6.52754E+00
   7.32974E+00  7.02693E+00  4.34109E+00  5.91559E+00  8.35797E+00  5.76637E+00  6.06389E+00  8.64331E+00  6.32581E+00  6.03105E+00
   7.89325E+00  6.61996E+00  4.93496E+00  8.31992E+00  6.88647E+00  7.08487E+00  8.55003E+00  8.53081E+00  5.35336E+00  6.76473E+00
   7.26494E+00  6.76728E+00  5.17940E+00  5.49408E+00  6.36592E+00  6.36443E+00  6.46528E+00  4.10033E+00  4.47833E+00  5.71661E+00
   7.02922E+00  5.92333E+00  4.17604E+00  4.65447E+00  4.33831E+00  6.67615E+00  5.23919E+00  3.70552E+00  3.14344E+00  3.37107E+00
   4.04689E+00  2.63261E+00  4.17230E+00  2.11045E+00  2.53135E+00  3.55834E+00  2.56049E+00  2.47563E+00  1.08718E+00  2.21373E+00
   5.68441E-01  2.86722E+00  1.64285E+00  3.87882E-01  2.51681E+00  3.81226E+00  2.38455E+00  2.70454E+00  2.51004E+00  2.91269E+00
   2.73234E+00  3.79877E+00  9.84686E-01  3.43380E+00  3.59681E+00  3.06357E+00  3.12428E+00  5.61652E+00  3.68487E+00  2.77252E+00
   4.16222E+00  5.01100E+00  7.86329E+00  6.84928E+00  9.00045E+00  8.61730E+00  1.10373E+01  1.07440E+01  1.13378E+01  9.49888E+00
   9.76973E+00  1.11464E+01  1.22326E+01  1.20681E+01  1.20331E+01  1.34447E+01  1.42416E+01  1.29834E+01  1.20073E+01  1.48939E+01
   1.29561E+01  1.35552E+01  1.41553E+01  1.59432E+01  1.40598E+01  1.60491E+01  1.65096E+01  1.46645E+01  1.69211E+01  1.71622E+01
   1.59188E+01  1.81165E+01  1.89312E+01  1.82973E+01  1.76213E+01  1.84633E+01  2.22840E+01  2.15202E+01  1.96019E+01  2.00575E+01
   2.19063E+01  2.19131E+01  2.28942E+01  2.42475E+01  2.27276E+01  2.30728E+01  2.16798E+01  2.33433E+01  2.26616E+01  2.41005E+01
   2.27192E+01  2.62111E+01  2.57977E+01  2.35948E+01  2.53518E+01  2.43561E+01  2.49299E+01  2.28489E+01  2.53455E+01  2.50949E+01
   2.46079E+01  2.48416E+01  2.27549E+01  2.41220E+01  2.36480E+01  2.56088E+01  2.47573E+01  2.47755E+01  2.53827E+01  2.33469E+01
   2.39500E+01  2.06223E+01  2.21134E+01  2.23221E+01  2.06682E+01  2.18033E+01  2.07990E+01  1.97941E+01  2.09237E+01  2.04274E+01
   2.02443E+01  2.05830E+01  1.85868E+01  1.81771E+01  1.83897E+01  1.55157E+01  1.61863E+01  1.83932E+01  1.67762E+01  1.58699E+01
   1.67831E+01  1.37394E+01  1.53886E+01  1.48995E+01  1.23547E+01  1.26152E+01  1.45795E+01  1.28126E+01  1.29325E+01  1.09284E+01
   6.78747E+00  9.41025E+00  8.14256E+00  1.00384E+01  8.44081E+00  9.45561E+00  9.18472E+00  7.36616E+00  3.32669E+00  4.09006E+00
   2.39317E+00  5.94796E+00  6.06139E+00  2.78392E+00  2.94894E+00  1.14809E+00  1.16227E+00  7.03274E-01  2.41083E-01  1.44411E+00
   9.95922E-01  2.02534E-02 -1.09742E+00 -3.19900E-01 -1.14345E+00 -2.04732E-01 -2.77932E+00 -3.62527E+00 -2.35420E+00 -4.07590E+00
  -3.26914E+00 -3.56282E+00 -4.36702E+00 -4.41677E+00 -4.68813E+00 -4.23723E+00 -6.08878E+00 -5.18870E+00 -5.51067E+00 -6.21868E+00
  -4.89050E+00 -8.01823E+00 -5.85422E+00 -8.48050E+00 -6.56903E+00 -7.56296E+00 -5.00290E+00 -8.69159E+00 -8.16521E+00 -7.39682E+00
  -8.46814E+00 -7.34874E+00 -8.96928E+00 -1.09070E+01 -8.47520E+00 -6.75413E+00 -6.58882E+00 -8.18266E+00 -6.72464E+00 -7.36415E+00
  -1.00184E+01 -8.06868E+00 -9.71831E+00 -8.13146E+00 -7.77862E+00 -9.15679E+00 -6.89700E+00 -7.62903E+00 -6.92623E+00 -9.36713E+00
  -9.27993E+00 -8.31298E+00 -7.44024E+00 -8.71056E+00 -8.75122E+00 -6.02672E+00 -5.66112E+00 -8.90718E+00
 NY points of the fit to the data follow
   4.73380E+00  4.73477E+00  4.72262E+00  4.73104E+00  4.72838E+00  4.75863E+00  4.77007E+00  4.83786E+00  4.85550E+00  4.94500E+00
   4.93504E+00  5.01994E+00  4.95561E+00  5.05514E+00  4.97693E+00  5.12986E+00  5.08364E+00  5.27252E+00  5.22911E+00  5.39479E+00
   5.30810E+00  5.42436E+00  5.33574E+00  5.41585E+00  5.35266E+00  5.38216E+00  5.27717E+00  5.29042E+00  5.15362E+00  5.25956E+00
   5.19609E+00  5.42322E+00  5.39820E+00  5.60763E+00  5.48656E+00  5.59063E+00  5.35785E+00  5.38156E+00  5.17026E+00  5.19657E+00
   5.17588E+00  5.19689E+00  5.39791E+00  5.32908E+00  5.64102E+00  5.35964E+00  5.63761E+00  5.14983E+00  5.33515E+00  4.76231E+00
   4.90463E+00  4.46317E+00  4.68804E+00  4.45409E+00  4.73841E+00  4.64692E+00  4.82715E+00  4.70608E+00  4.68106E+00  4.53925E+00
   4.41438E+00  4.31228E+00  4.24160E+00  4.18096E+00  4.13321E+00  4.09327E+00  4.05566E+00  4.02956E+00  3.99653E+00  3.98010E+00
   3.95028E+00  3.93919E+00  3.91140E+00  3.90440E+00  3.87789E+00  3.87417E+00  3.84777E+00  3.84387E+00  3.81690E+00  3.81228E+00
   3.78846E+00  3.78448E+00  3.76994E+00  3.76696E+00  3.76598E+00  3.77352E+00  3.79501E+00  3.80840E+00  3.85012E+00  3.84059E+00
   3.88094E+00  3.84576E+00  3.87629E+00  3.83681E+00  3.86413E+00  3.82829E+00  3.85431E+00  3.82987E+00  3.86074E+00  3.87397E+00
   3.94350E+00  4.00935E+00  4.15550E+00  4.22706E+00  4.44533E+00  4.47523E+00  4.74664E+00  4.73553E+00  5.06522E+00  5.01790E+00
   5.38991E+00  5.27705E+00  5.64199E+00  5.42488E+00  5.72990E+00  5.36089E+00  5.53904E+00  5.08071E+00  5.11754E+00  4.68607E+00
   4.62678E+00  4.33225E+00  4.26123E+00  4.17521E+00  4.16540E+00  4.28704E+00  4.33435E+00  4.52445E+00  4.54654E+00  4.77460E+00
   4.76762E+00  5.02968E+00  4.99210E+00  5.28399E+00  5.20217E+00  5.50028E+00  5.36471E+00  5.63496E+00  5.42948E+00  5.61282E+00
   5.36961E+00  5.44678E+00  5.22576E+00  5.22177E+00  5.07500E+00  5.03984E+00  4.98727E+00  4.97174E+00  4.99291E+00  5.01905E+00
   5.04218E+00  5.06405E+00  5.07911E+00  5.09143E+00  5.09591E+00  5.09584E+00  5.08797E+00  5.07330E+00  5.05152E+00  5.02180E+00
   4.98656E+00  4.94466E+00  4.89820E+00  4.84660E+00  4.78939E+00  4.72906E+00  4.66280E+00  4.59543E+00  4.52225E+00  4.44988E+00
   4.37112E+00  4.29667E+00  4.21520E+00  4.14307E+00  4.06134E+00  3.99232E+00  3.91253E+00  3.84332E+00  3.76861E+00  3.69787E+00
   3.63064E+00  3.56019E+00  3.50211E+00  3.43498E+00  3.38951E+00  3.33201E+00  3.30375E+00  3.26234E+00  3.25444E+00  3.22130E+00
   3.23172E+00  3.18898E+00  3.20350E+00  3.15978E+00  3.16706E+00  3.15567E+00  3.18462E+00  3.23933E+00  3.35374E+00  3.44690E+00
   3.64690E+00  3.69100E+00  3.89225E+00  3.84098E+00  3.98421E+00  3.83578E+00  3.94459E+00  3.74447E+00  3.88007E+00  3.72873E+00
   3.94906E+00  3.91020E+00  4.32593E+00  4.32014E+00  5.01258E+00  4.81658E+00  5.64892E+00  5.08615E+00  5.86789E+00  4.97917E+00
   5.71473E+00  4.67081E+00  5.55434E+00  4.47623E+00  5.52474E+00  4.37331E+00  5.34560E+00  3.97478E+00  4.54267E+00  3.14291E+00
   3.29139E+00  2.34334E+00  2.31525E+00  2.26047E+00  2.53660E+00  3.41078E+00  4.07300E+00  5.38877E+00  6.13300E+00  7.12986E+00
   7.47908E+00  7.91148E+00  7.86494E+00  7.85489E+00  7.62566E+00  7.49458E+00  7.40702E+00  7.28154E+00  7.24952E+00  7.07991E+00
   7.10825E+00  6.89723E+00  7.01622E+00  6.78222E+00  6.97458E+00  6.78577E+00  6.95377E+00  6.86817E+00  6.93863E+00  7.00261E+00
   6.87807E+00  7.08190E+00  6.75947E+00  7.09432E+00  6.68754E+00  7.13669E+00  6.72866E+00  7.24527E+00  6.78876E+00  7.23415E+00
   6.75612E+00  7.02447E+00  6.47811E+00  6.51205E+00  5.96621E+00  5.80392E+00  5.27956E+00  4.99311E+00  4.51539E+00  4.22245E+00
   3.84721E+00  3.66917E+00  3.47756E+00  3.42754E+00  3.32069E+00  3.29881E+00  3.24217E+00  3.18394E+00  3.12324E+00  3.04191E+00
   2.96105E+00  2.85884E+00  2.77289E+00  2.67697E+00  2.60893E+00  2.55001E+00  2.51820E+00  2.48970E+00  2.47793E+00  2.47148E+00
   2.47298E+00  2.48402E+00  2.49765E+00  2.52675E+00  2.56301E+00  2.61633E+00  2.67996E+00  2.76323E+00  2.86199E+00  2.98417E+00
   3.11430E+00  3.27742E+00  3.42970E+00  3.62979E+00  3.81771E+00  4.06236E+00  4.30761E+00  4.62070E+00  4.93551E+00  5.33345E+00
   5.72824E+00  6.20220E+00  6.67276E+00  7.21426E+00  7.72522E+00  8.32345E+00  8.81095E+00  9.42421E+00  9.84107E+00  1.04334E+01
   1.07647E+01  1.13424E+01  1.15801E+01  1.21617E+01  1.23004E+01  1.28635E+01  1.29052E+01  1.34128E+01  1.33670E+01  1.38108E+01
   1.37695E+01  1.41976E+01  1.42645E+01  1.47214E+01  1.49500E+01  1.54604E+01  1.58404E+01  1.63540E+01  1.68012E+01  1.72613E+01
   1.76746E+01  1.80498E+01  1.84457E+01  1.87920E+01  1.91902E+01  1.95661E+01  1.99876E+01  2.04328E+01  2.08833E+01  2.13294E+01
   2.17609E+01  2.21708E+01  2.25509E+01  2.28960E+01  2.31997E+01  2.34594E+01  2.36718E+01  2.38372E+01  2.39561E+01  2.40325E+01
   2.40704E+01  2.40770E+01  2.40589E+01  2.40253E+01  2.39835E+01  2.39428E+01  2.39093E+01  2.38896E+01  2.38865E+01  2.39028E+01
   2.39365E+01  2.39854E+01  2.40429E+01  2.41026E+01  2.41543E+01  2.41892E+01  2.41961E+01  2.41661E+01  2.40896E+01  2.39606E+01
   2.37733E+01  2.35265E+01  2.32197E+01  2.28569E+01  2.24428E+01  2.19860E+01  2.14947E+01  2.09804E+01  2.04528E+01  1.99233E+01
   1.94007E+01  1.88941E+01  1.84092E+01  1.79515E+01  1.75221E+01  1.71221E+01  1.67485E+01  1.63981E+01  1.60646E+01  1.57423E+01
   1.54225E+01  1.50987E+01  1.47622E+01  1.44069E+01  1.40257E+01  1.36146E+01  1.31689E+01  1.26874E+01  1.21686E+01  1.16143E+01
   1.10256E+01  1.04071E+01  9.76213E+00  9.09675E+00  8.41563E+00  7.72566E+00  7.03171E+00  6.34048E+00  5.65625E+00  4.98487E+00
   4.32951E+00  3.69471E+00  3.08229E+00  2.49541E+00  1.93456E+00  1.40165E+00  8.96011E-01  4.18571E-01 -3.21844E-02 -4.56029E-01
  -8.55014E-01 -1.22932E+00 -1.58129E+00 -1.91128E+00 -2.22172E+00 -2.51297E+00 -2.78743E+00 -3.04537E+00 -3.28905E+00 -3.51863E+00
  -3.73621E+00 -3.94178E+00 -4.13729E+00 -4.32257E+00 -4.49944E+00 -4.66758E+00 -4.82868E+00 -4.98229E+00 -5.12998E+00 -5.27123E+00
  -5.40751E+00 -5.53820E+00 -5.66469E+00 -5.78630E+00 -5.90437E+00 -6.01814E+00 -6.12891E+00 -6.23588E+00 -6.34030E+00 -6.44133E+00
  -6.54020E+00 -6.63603E+00 -6.73002E+00 -6.82127E+00 -6.91095E+00 -6.99814E+00 -7.08400E+00 -7.16759E+00 -7.25003E+00 -7.33041E+00
  -7.40981E+00 -7.48730E+00 -7.56397E+00 -7.63886E+00 -7.71306E+00 -7.78562E+00 -7.85759E+00 -7.92802E+00 -7.99798E+00 -8.06648E+00
  -8.13459E+00 -8.20134E+00 -8.26778E+00 -8.33292E+00 -8.39781E+00 -8.46147E+00 -8.52495E+00 -8.58724E+00
 NY background values follow
     4.466E+00    4.452E+00    4.438E+00    4.424E+00    4.410E+00    4.396E+00    4.382E+00    4.368E+00    4.354E+00    4.340E+00
     4.326E+00    4.312E+00    4.298E+00    4.284E+00    4.270E+00    4.256E+00    4.242E+00    4.228E+00    4.214E+00    4.200E+00
     4.186E+00    4.172E+00    4.158E+00    4.144E+00    4.130E+00    4.116E+00    4.102E+00    4.088E+00    4.074E+00    4.060E+00
     4.046E+00    4.032E+00    4.018E+00    4.004E+00    3.990E+00    3.976E+00    3.962E+00    3.948E+00    3.934E+00    3.919E+00
     3.905E+00    3.891E+00    3.877E+00    3.863E+00    3.849E+00    3.835E+00    3.820E+00    3.806E+00    3.792E+00    3.778E+00
     3.763E+00    3.749E+00    3.735E+00    3.720E+00    3.706E+00    3.692E+00    3.677E+00    3.663E+00    3.648E+00    3.634E+00
     3.619E+00    3.605E+00    3.590E+00    3.575E+00    3.561E+00    3.546E+00    3.531E+00    3.516E+00    3.502E+00    3.487E+00
     3.472E+00    3.457E+00    3.442E+00    3.427E+00    3.412E+00    3.397E+00    3.382E+00    3.367E+00    3.351E+00    3.336E+00
     3.321E+00    3.306E+00    3.290E+00    3.275E+00    3.259E+00    3.244E+00    3.228E+00    3.212E+00    3.197E+00    3.181E+00
     3.165E+00    3.149E+00    3.134E+00    3.118E+00    3.102E+00    3.086E+00    3.069E+00    3.053E+00    3.037E+00    3.021E+00
     3.004E+00    2.988E+00    2.971E+00    2.955E+00    2.938E+00    2.922E+00    2.905E+00    2.888E+00    2.871E+00    2.854E+00
     2.837E+00    2.820E+00    2.803E+00    2.786E+00    2.769E+00    2.751E+00    2.734E+00    2.716E+00    2.699E+00    2.681E+00
     2.663E+00    2.646E+00    2.628E+00    2.610E+00    2.592E+00    2.574E+00    2.555E+00    2.537E+00    2.519E+00    2.500E+00
     2.482E+00    2.463E+00    2.444E+00    2.426E+00    2.407E+00    2.388E+00    2.369E+00    2.350E+00    2.331E+00    2.311E+00
     2.292E+00    2.273E+00    2.253E+00    2.233E+00    2.214E+00    2.194E+00    2.174E+00    2.154E+00    2.134E+00    2.114E+00
     2.094E+00    2.074E+00    2.053E+00    2.033E+00    2.012E+00    1.992E+00    1.971E+00    1.950E+00    1.929E+00    1.908E+00
     1.887E+00    1.866E+00    1.845E+00    1.824E+00    1.802E+00    1.781E+00    1.759E+00    1.738E+00    1.716E+00    1.694E+00
     1.672E+00    1.650E+00    1.628E+00    1.606E+00    1.583E+00    1.561E+00    1.538E+00    1.516E+00    1.493E+00    1.470E+00
     1.448E+00    1.425E+00    1.402E+00    1.379E+00    1.355E+00    1.332E+00    1.309E+00    1.285E+00    1.262E+00    1.238E+00
     1.214E+00    1.190E+00    1.166E+00    1.142E+00    1.118E+00    1.094E+00    1.069E+00    1.045E+00    1.020E+00    9.958E-01
     9.711E-01    9.462E-01    9.213E-01    8.963E-01    8.712E-01    8.460E-01    8.207E-01    7.953E-01    7.698E-01    7.442E-01
     7.185E-01    6.927E-01    6.668E-01    6.408E-01    6.147E-01    5.885E-01    5.622E-01    5.358E-01    5.093E-01    4.827E-01
     4.560E-01    4.292E-01    4.023E-01    3.753E-01    3.482E-01    3.210E-01    2.937E-01    2.663E-01    2.388E-01    2.112E-01
     1.835E-01    1.557E-01    1.278E-01    9.974E-02    7.161E-02    4.339E-02    1.505E-02   -1.338E-02   -4.192E-02   -7.056E-02
    -9.931E-02   -1.282E-01   -1.571E-01   -1.862E-01   -2.154E-01   -2.446E-01   -2.740E-01   -3.035E-01   -3.331E-01   -3.628E-01
    -3.926E-01   -4.225E-01   -4.525E-01   -4.827E-01   -5.129E-01   -5.432E-01   -5.737E-01   -6.042E-01   -6.348E-01   -6.656E-01
    -6.964E-01   -7.274E-01   -7.584E-01   -7.896E-01   -8.208E-01   -8.522E-01   -8.836E-01   -9.151E-01   -9.468E-01   -9.785E-01
    -1.010E+00   -1.042E+00   -1.074E+00   -1.106E+00   -1.139E+00   -1.171E+00   -1.203E+00   -1.236E+00   -1.268E+00   -1.301E+00
    -1.334E+00   -1.367E+00   -1.400E+00   -1.433E+00   -1.466E+00   -1.499E+00   -1.532E+00   -1.566E+00   -1.599E+00   -1.633E+00
    -1.666E+00   -1.700E+00   -1.734E+00   -1.768E+00   -1.802E+00   -1.836E+00   -1.870E+00   -1.904E+00   -1.939E+00   -1.973E+00
    -2.007E+00   -2.042E+00   -2.077E+00   -2.111E+00   -2.146E+00   -2.181E+00   -2.216E+00   -2.251E+00   -2.286E+00   -2.321E+00
    -2.357E+00   -2.392E+00   -2.427E+00   -2.463E+00   -2.498E+00   -2.534E+00   -2.570E+00   -2.605E+00   -2.641E+00   -2.677E+00
    -2.713E+00   -2.749E+00   -2.785E+00   -2.821E+00   -2.858E+00   -2.894E+00   -2.930E+00   -2.967E+00   -3.003E+00   -3.040E+00
    -3.077E+00   -3.113E+00   -3.150E+00   -3.187E+00   -3.224E+00   -3.261E+00   -3.298E+00   -3.335E+00   -3.372E+00   -3.409E+00
    -3.447E+00   -3.484E+00   -3.521E+00   -3.559E+00   -3.596E+00   -3.634E+00   -3.672E+00   -3.709E+00   -3.747E+00   -3.785E+00
    -3.823E+00   -3.861E+00   -3.899E+00   -3.937E+00   -3.975E+00   -4.013E+00   -4.051E+00   -4.089E+00   -4.127E+00   -4.166E+00
    -4.204E+00   -4.243E+00   -4.281E+00   -4.320E+00   -4.358E+00   -4.397E+00   -4.435E+00   -4.474E+00   -4.513E+00   -4.552E+00
    -4.591E+00   -4.629E+00   -4.668E+00   -4.707E+00   -4.746E+00   -4.785E+00   -4.824E+00   -4.864E+00   -4.903E+00   -4.942E+00
    -4.981E+00   -5.021E+00   -5.060E+00   -5.099E+00   -5.139E+00   -5.178E+00   -5.218E+00   -5.257E+00   -5.297E+00   -5.336E+00
    -5.376E+00   -5.416E+00   -5.455E+00   -5.495E+00   -5.535E+00   -5.575E+00   -5.615E+00   -5.654E+00   -5.694E+00   -5.734E+00
    -5.774E+00   -5.814E+00   -5.854E+00   -5.894E+00   -5.935E+00   -5.975E+00   -6.015E+00   -6.055E+00   -6.095E+00   -6.136E+00
    -6.176E+00   -6.216E+00   -6.256E+00   -6.297E+00   -6.337E+00   -6.378E+00   -6.418E+00   -6.459E+00   -6.499E+00   -6.540E+00
    -6.580E+00   -6.621E+00   -6.661E+00   -6.702E+00   -6.743E+00   -6.783E+00   -6.824E+00   -6.865E+00   -6.905E+00   -6.946E+00
    -6.987E+00   -7.028E+00   -7.069E+00   -7.109E+00   -7.150E+00   -7.191E+00   -7.232E+00   -7.273E+00   -7.314E+00   -7.355E+00
    -7.396E+00   -7.437E+00   -7.478E+00   -7.519E+00   -7.560E+00   -7.601E+00   -7.642E+00   -7.683E+00   -7.724E+00   -7.765E+00
    -7.806E+00   -7.847E+00   -7.889E+00   -7.930E+00   -7.971E+00   -8.012E+00   -8.053E+00   -8.094E+00   -8.136E+00   -8.177E+00
    -8.218E+00   -8.259E+00   -8.301E+00   -8.342E+00   -8.383E+00   -8.424E+00   -8.466E+00   -8.507E+00   -8.548E+00   -8.589E+00
    -8.631E+00   -8.672E+00   -8.713E+00   -8.755E+00   -8.796E+00   -8.837E+00   -8.879E+00   -8.920E+00   -8.961E+00   -9.003E+00
    -9.044E+00   -9.085E+00   -9.127E+00   -9.168E+00   -9.209E+00   -9.250E+00   -9.292E+00   -9.333E+00   -9.374E+00   -9.416E+00
    -9.457E+00   -9.498E+00   -9.540E+00   -9.581E+00   -9.622E+00   -9.664E+00   -9.705E+00   -9.746E+00
 Ala      Conc. = 1.33E+02
