 LCModel (Version 6.3-1L) Copyright: S.W. Provencher.          Ref.: Magn. Reson. Med. 30:672-679 (1993).                
 Slice#3 Row#1 Col#3  K_02_press_1_raw_act
 36 lines in following concentration table = NCONC+1
    Conc.  %SD /Cr+PCr  Metabolite                                         
  648.859  50%   3.214 Ala                                                 
   32.963 107%   0.163 Asp                                                 
    0.000 999%   0.000 Cr                                                  
  201.911  24%   1.000 PCr                                                 
   19.874 106% 9.8E-02 GABA                                                
   19.577 108% 9.7E-02 Glc                                                 
   96.848 417%   0.480 Gln                                                 
   82.727 602%   0.410 Glu                                                 
   63.059 136%   0.312 GPC                                                 
    8.348 999% 4.1E-02 PCh                                                 
    0.000 999%   0.000 GSH                                                 
    0.000 999%   0.000 Ins                                                 
 6.17E+03  15%  30.569 Lac                                                 
  278.547  20%   1.380 NAA                                                 
    0.000 999%   0.000 NAAG                                                
    9.139  75% 4.5E-02 Scyllo                                              
   34.065 102%   0.169 Tau                                                 
   77.675  65%   0.385 -CrCH2                                              
   71.408  24%   0.354 GPC+PCh                                             
  278.547  20%   1.380 NAA+NAAG                                            
  201.911  24%   1.000 Cr+PCr                                              
  179.574 388%   0.889 Glu+Gln                                             
    0.000 999%   0.000 Lip13a                                              
 3.91E+03  13%  19.348 Lip13b                                              
 1.03E+03  14%   5.102 Lip09                                               
    0.000 999%   0.000 MM09                                                
  585.850  14%   2.902 Lip20                                               
    0.000 999%   0.000 MM20                                                
 6.42E-03 999% 3.2E-05 MM12                                                
    0.000 999%   0.000 MM14                                                
    0.241 999% 1.2E-03 MM17                                                
 3.91E+03  13%  19.348 Lip13a+Lip13b                                       
 3.91E+03  13%  19.348 MM14+Lip13a+Lip13b+MM12                             
 1.03E+03  14%   5.102 MM09+Lip09                                          
  585.850  14%   2.902 MM20+Lip20                                          
   6 lines in following misc. output table
  FWHM = 0.138 ppm    S/N =  11                                            
  Data shift = 0.031 ppm                                                   
  Ph: -82 deg     -44.1 deg/ppm                                            
  alphaB,S = 8.5E+01,   2.0E+02                                            
    7 spline knots.   Ns = 9(2)                                            
   2 inflections.     1 extrema                                            
  498 points on ppm-axis = NY
      4.000000     3.992357     3.984714     3.977070     3.969427     3.961784     3.954141     3.946497     3.938854     3.931211
      3.923568     3.915925     3.908281     3.900638     3.892995     3.885352     3.877708     3.870065     3.862422     3.854779
      3.847136     3.839492     3.831849     3.824206     3.816563     3.808919     3.801276     3.793633     3.785990     3.778347
      3.770703     3.763060     3.755417     3.747774     3.740130     3.732487     3.724844     3.717201     3.709558     3.701914
      3.694271     3.686628     3.678985     3.671341     3.663698     3.656055     3.648412     3.640769     3.633125     3.625482
      3.617839     3.610196     3.602552     3.594909     3.587266     3.579623     3.571980     3.564336     3.556693     3.549050
      3.541407     3.533763     3.526120     3.518477     3.510834     3.503191     3.495547     3.487904     3.480261     3.472618
      3.464974     3.457331     3.449688     3.442045     3.434402     3.426758     3.419115     3.411472     3.403829     3.396185
      3.388542     3.380899     3.373256     3.365613     3.357969     3.350326     3.342683     3.335040     3.327396     3.319753
      3.312110     3.304467     3.296824     3.289180     3.281537     3.273894     3.266251     3.258607     3.250964     3.243321
      3.235678     3.228034     3.220391     3.212748     3.205105     3.197462     3.189818     3.182175     3.174532     3.166889
      3.159245     3.151602     3.143959     3.136316     3.128673     3.121029     3.113386     3.105743     3.098100     3.090456
      3.082813     3.075170     3.067527     3.059884     3.052240     3.044597     3.036954     3.029311     3.021667     3.014024
      3.006381     2.998738     2.991095     2.983451     2.975808     2.968165     2.960522     2.952878     2.945235     2.937592
      2.929949     2.922306     2.914662     2.907019     2.899376     2.891733     2.884089     2.876446     2.868803     2.861160
      2.853517     2.845873     2.838230     2.830587     2.822944     2.815300     2.807657     2.800014     2.792371     2.784728
      2.777084     2.769441     2.761798     2.754155     2.746511     2.738868     2.731225     2.723582     2.715939     2.708295
      2.700652     2.693009     2.685366     2.677722     2.670079     2.662436     2.654793     2.647150     2.639506     2.631863
      2.624220     2.616577     2.608933     2.601290     2.593647     2.586004     2.578361     2.570717     2.563074     2.555431
      2.547788     2.540144     2.532501     2.524858     2.517215     2.509572     2.501928     2.494285     2.486642     2.478999
      2.471355     2.463712     2.456069     2.448426     2.440783     2.433139     2.425496     2.417853     2.410210     2.402566
      2.394923     2.387280     2.379637     2.371994     2.364350     2.356707     2.349064     2.341421     2.333777     2.326134
      2.318491     2.310848     2.303205     2.295561     2.287918     2.280275     2.272632     2.264988     2.257345     2.249702
      2.242059     2.234416     2.226772     2.219129     2.211486     2.203843     2.196199     2.188556     2.180913     2.173270
      2.165627     2.157983     2.150340     2.142697     2.135054     2.127410     2.119767     2.112124     2.104481     2.096838
      2.089194     2.081551     2.073908     2.066265     2.058621     2.050978     2.043335     2.035692     2.028049     2.020405
      2.012762     2.005119     1.997476     1.989833     1.982190     1.974546     1.966903     1.959260     1.951617     1.943974
      1.936331     1.928688     1.921045     1.913402     1.905759     1.898115     1.890472     1.882829     1.875186     1.867543
      1.859900     1.852257     1.844614     1.836971     1.829327     1.821684     1.814041     1.806398     1.798755     1.791112
      1.783469     1.775826     1.768183     1.760540     1.752896     1.745253     1.737610     1.729967     1.722324     1.714681
      1.707038     1.699395     1.691752     1.684108     1.676465     1.668822     1.661179     1.653536     1.645893     1.638250
      1.630607     1.622964     1.615321     1.607677     1.600034     1.592391     1.584748     1.577105     1.569462     1.561819
      1.554176     1.546533     1.538890     1.531246     1.523603     1.515960     1.508317     1.500674     1.493031     1.485388
      1.477745     1.470102     1.462458     1.454815     1.447172     1.439529     1.431886     1.424243     1.416600     1.408957
      1.401314     1.393671     1.386027     1.378384     1.370741     1.363098     1.355455     1.347812     1.340169     1.332526
      1.324883     1.317240     1.309596     1.301953     1.294310     1.286667     1.279024     1.271381     1.263738     1.256095
      1.248452     1.240808     1.233165     1.225522     1.217879     1.210236     1.202593     1.194950     1.187307     1.179664
      1.172021     1.164377     1.156734     1.149091     1.141448     1.133805     1.126162     1.118519     1.110876     1.103233
      1.095590     1.087946     1.080303     1.072660     1.065017     1.057374     1.049731     1.042088     1.034445     1.026802
      1.019158     1.011515     1.003872     0.996229     0.988586     0.980943     0.973300     0.965657     0.958014     0.950371
      0.942727     0.935084     0.927441     0.919798     0.912155     0.904512     0.896869     0.889226     0.881583     0.873940
      0.866296     0.858653     0.851010     0.843367     0.835724     0.828081     0.820438     0.812795     0.805152     0.797508
      0.789865     0.782222     0.774579     0.766936     0.759293     0.751650     0.744007     0.736364     0.728721     0.721077
      0.713434     0.705791     0.698148     0.690505     0.682862     0.675219     0.667576     0.659933     0.652290     0.644646
      0.637003     0.629360     0.621717     0.614074     0.606431     0.598788     0.591145     0.583502     0.575858     0.568215
      0.560572     0.552929     0.545286     0.537643     0.530000     0.522357     0.514714     0.507071     0.499427     0.491784
      0.484141     0.476498     0.468855     0.461212     0.453569     0.445925     0.438282     0.430639     0.422996     0.415353
      0.407710     0.400067     0.392424     0.384780     0.377137     0.369494     0.361851     0.354208     0.346565     0.338922
      0.331278     0.323635     0.315992     0.308349     0.300706     0.293063     0.285420     0.277777     0.270133     0.262490
      0.254847     0.247204     0.239561     0.231918     0.224275     0.216631     0.208988     0.201345
 NY phased data points follow
   1.62154E+00 -2.24866E+00 -2.36539E+00  2.84567E+00 -2.80325E+00 -7.17526E-01  5.24301E-01 -9.89102E-01 -1.56628E-01  1.88880E+00
   1.25422E+00  2.72122E+00  3.00057E+00  1.37600E+00 -3.36720E+00  2.37218E+00 -2.99032E+00 -2.16956E+00 -1.38911E+00  1.82519E-01
  -3.19617E+00  1.20006E+00 -2.95999E+00 -7.60994E-01 -3.05688E+00 -2.97184E+00 -6.62418E-01 -1.80096E+00 -1.23173E+00 -8.59636E-01
   1.08989E+00  1.14212E+00 -6.44533E-02  2.39142E+00 -1.30450E+00 -5.15462E-01 -1.90532E+00 -2.73741E+00  1.80843E+00 -8.74782E-01
   3.20333E+00 -8.49543E-03 -2.88972E+00  2.43686E-02  3.03936E+00  1.27149E+00 -3.11782E+00  3.22773E+00  5.87468E-01  1.25974E+00
   2.15102E+00  1.64115E+00  5.34559E-01  4.99746E-01 -1.29387E-02 -1.53761E+00 -2.15158E+00  2.64305E+00  5.93739E-01  2.16669E-01
  -2.25719E+00  1.93257E+00 -3.93521E+00  7.00402E-01 -4.73593E-01 -3.65427E-01  2.46866E+00 -2.77456E+00 -1.12060E+00 -3.77814E+00
  -4.92372E-01 -3.00231E+00  2.25345E-01  7.02527E-01 -1.52934E+00  1.60640E+00 -1.11561E+00  1.52035E+00  2.72500E+00 -4.33941E-01
  -8.53855E-01  7.14103E-01 -8.94775E-01 -2.48085E+00  3.31886E+00  4.02237E+00 -1.84786E-01  4.42966E+00 -8.10903E-01  2.01037E+00
   1.66010E+00 -8.02678E-01  1.15922E+00  3.93528E-01  4.60262E+00  2.29540E+00  3.96028E-01  3.94201E+00  4.55190E+00  3.92963E+00
  -1.50050E+00  1.77709E+00  3.80233E+00  8.28697E+00  2.90317E+00  4.92859E+00  4.19439E+00  2.53488E+00  2.21788E+00  3.68396E+00
   2.68110E+00  1.67105E+00 -1.65005E-01  3.42865E+00  5.94721E-01  1.12116E+00  2.12423E-01  4.52999E+00  1.30405E+00  2.84964E+00
   4.83977E+00 -1.25611E-01  7.78733E+00  9.51771E-02  7.10698E+00  5.29254E+00  2.79156E+00  2.60217E+00  5.52591E+00  5.80870E+00
   5.22300E+00  2.36722E+00  6.09082E+00  4.56512E+00  9.47372E-01  4.34859E+00  1.89255E+00 -3.70649E+00 -2.21559E+00 -7.16499E-01
  -5.64943E-01  3.85187E+00  6.57570E+00  4.32323E+00  1.23467E+00  3.68936E+00 -2.25518E-01  2.53607E+00  3.62119E+00  4.26179E+00
   4.35486E+00 -7.23854E-01 -4.70140E-01  4.70883E+00  2.32867E+00  2.20761E+00  3.93932E+00  1.51090E-01  2.89335E+00  2.29102E+00
   4.39162E+00 -2.42776E+00  5.51695E-01  1.78907E+00  2.45471E+00  1.76084E+00  4.15508E+00  7.40945E-01 -7.18707E-01  2.59818E+00
   7.83283E-01 -1.29297E+00  1.54979E+00  1.57503E+00 -1.62630E+00  4.88850E-01  1.09445E+00 -1.37728E-01 -2.37165E-01  2.03904E+00
  -1.39683E+00  1.23385E+00 -4.82454E-02  2.98683E+00  9.09575E-01  1.04172E+00 -1.96319E+00  5.36589E+00  3.90718E+00 -7.33835E-01
   1.90025E+00  1.88048E+00 -9.45595E-01 -1.28880E-02 -6.32217E-01  4.71545E-01  3.67049E-01  9.61879E-01  2.78884E+00  2.29201E+00
   2.40132E+00  5.89484E+00  1.12255E+00  1.90781E+00  3.65355E+00  3.31373E+00  5.90345E+00  2.38264E+00  3.22163E+00  3.06607E+00
   8.46004E-01 -1.10007E+00  3.65884E+00  5.12725E+00  4.06734E-01  4.56328E+00  9.94457E-01  2.83520E+00  2.43793E+00  5.49287E+00
   4.30420E+00  2.97274E+00  3.88433E+00  2.57678E+00  3.31334E+00  3.78089E+00  2.83552E+00  6.78574E-01  2.04843E+00  3.85731E+00
   1.61674E+00  3.17737E+00  2.18129E+00  3.02383E+00  3.33726E+00  4.27315E+00  1.55597E+00  1.80227E+00  4.72472E+00  3.39765E+00
   1.10177E+00  4.74306E+00  2.24172E+00  4.82944E-02  3.80622E+00  3.36860E+00  6.19512E+00  5.85739E+00 -9.47408E-01  3.18996E+00
   3.43951E+00  5.29301E+00 -2.22252E-01  2.90827E+00  6.72600E+00  6.14344E+00  6.71367E+00  6.85891E+00  7.21415E+00  5.16372E+00
   6.49170E+00  9.86848E+00  8.94096E+00  1.05483E+01  8.74266E+00  7.58567E+00  6.08493E+00  8.48679E+00  6.24622E+00  5.70534E+00
   5.19560E+00  3.76462E+00  6.16824E+00  4.10929E+00  3.69578E+00  8.41517E+00  8.31760E+00  1.77526E+00  5.37295E+00  2.42457E+00
   7.91509E+00  8.85608E-01  7.12871E+00  5.08552E+00  4.57266E+00  4.85042E+00  3.71926E+00  4.07301E+00  5.68573E+00  4.86444E+00
   4.44914E+00  2.63103E-01  5.70974E+00  2.84660E+00  6.45663E+00  7.91206E+00  7.92905E+00  5.26853E+00  7.62454E+00  7.69242E+00
   5.99491E+00  4.99408E+00  5.67511E+00  4.24162E+00  4.44690E+00  4.24403E+00  6.25004E+00  6.11457E+00  1.81862E+00  7.10464E-01
   2.26912E+00  4.87807E+00  1.68609E+00  7.94476E+00  3.32453E+00  1.28302E+00  6.09588E+00  4.14097E+00  4.48947E+00  5.59266E+00
   5.36316E+00  7.10697E+00  7.43101E+00  9.26976E+00  6.74380E+00  9.12545E+00  8.66082E+00  1.05310E+01  7.04874E+00  9.86591E+00
   1.12408E+01  7.53383E+00  8.15656E+00  6.87476E+00  7.14855E+00  9.88322E+00  2.00311E+01  2.09404E+01  2.30084E+01  2.80141E+01
   3.34510E+01  3.66696E+01  4.02714E+01  4.36112E+01  5.06364E+01  4.98833E+01  5.58732E+01  5.47207E+01  5.47704E+01  5.70335E+01
   5.72166E+01  5.71340E+01  5.62235E+01  5.39513E+01  5.08388E+01  4.51161E+01  3.87824E+01  3.72408E+01  3.55553E+01  3.08716E+01
   2.53109E+01  2.50836E+01  2.23254E+01  2.23658E+01  1.86811E+01  1.68192E+01  1.58870E+01  1.87044E+01  1.73818E+01  1.60075E+01
   1.58411E+01  1.42254E+01  1.23942E+01  1.33528E+01  1.17819E+01  1.37694E+01  1.22415E+01  1.50986E+01  1.04514E+01  1.21112E+01
   1.43646E+01  1.42442E+01  1.21799E+01  1.31166E+01  9.80938E+00  1.22387E+01  1.22488E+01  7.44956E+00  1.00358E+01  8.72707E+00
   9.63385E+00  6.18377E+00  7.20252E+00  8.87015E+00  8.35822E+00  6.19384E+00  6.13090E+00  5.77674E+00  7.22870E+00  3.94296E+00
   6.81919E+00  1.02832E+01  7.47018E+00  4.61951E+00  1.08704E+01  9.02113E+00  4.89116E+00  8.01294E+00  9.16868E+00  3.91502E+00
   6.48039E+00  5.71035E+00  4.49589E+00  7.15497E+00  3.13122E+00  7.04976E+00  4.29227E+00  5.82781E+00  4.30041E+00  8.68327E+00
   3.51235E+00  5.84175E+00  6.01849E+00  1.07494E+01  5.54268E+00  5.11377E+00  1.00929E+01  4.46833E+00  1.15392E+00  7.21148E+00
   1.28604E+00  3.47203E+00  5.41870E+00  3.89509E+00  1.56075E+00  4.38050E+00  7.75162E+00  5.10983E+00  5.27470E+00  5.64209E+00
   5.36961E+00  5.28310E+00  4.54207E+00  4.63997E+00  4.03168E+00  1.56402E+00  4.71594E+00  4.09073E+00  3.36927E+00  1.11212E+00
   3.51762E+00 -5.49895E-01  3.72258E+00  6.78384E+00  2.87512E+00  2.00815E+00  6.85997E+00  1.67739E+00  3.68695E+00  3.98570E+00
   6.14462E+00  5.74588E+00  4.86093E+00  3.54235E+00  5.37302E+00  1.55715E+00 -7.92396E-01  3.96833E+00  4.48833E+00  4.42867E+00
   7.45871E+00  6.68304E+00  8.55499E+00  2.06090E+00  6.57779E+00  2.58055E+00  5.03845E+00  6.47893E+00  5.87202E+00  1.86384E+00
   1.53884E+00  2.22841E+00  4.01572E+00  2.22450E+00  3.62350E+00  5.69695E+00  1.73584E+00  1.40548E+00  3.08206E+00  3.82528E+00
   3.15037E+00  5.14057E+00  2.22460E+00  4.07584E+00  5.25020E+00  6.50550E+00  4.87048E+00  6.39797E+00
 NY points of the fit to the data follow
  -1.60966E+00 -2.23814E-01 -1.26327E+00  3.20228E-02 -4.78512E-01  8.04515E-01  3.41041E-01  1.24745E+00  7.60898E-01  1.23047E+00
   6.88084E-01  7.74674E-01  2.74092E-01  5.98739E-01  2.77131E-01  6.53468E-01  4.52335E-01  7.90056E-01  6.49558E-01  8.24576E-01
   5.28948E-01  6.35735E-01  3.04565E-01  3.43266E-01  4.18059E-02  3.12182E-02 -2.01932E-01 -2.20984E-01 -3.33771E-01 -3.53845E-01
  -2.85947E-01 -3.25758E-01 -1.78447E-01 -2.59494E-01 -6.51984E-02 -1.89227E-01  2.69119E-02 -1.39412E-01  7.68185E-02 -1.23355E-01
   7.71906E-02 -1.28618E-01  5.69804E-02 -1.36250E-01  4.90643E-02 -1.06320E-01  8.53622E-02 -1.93592E-02  1.29934E-01  3.03240E-02
   1.34937E-01  4.09812E-02  9.78512E-02  1.10399E-02  3.18716E-02 -9.13257E-03  2.00940E-02  3.94245E-04  2.12529E-02  1.50245E-02
   2.23222E-02  3.35946E-02  2.02816E-02  3.11140E-02  1.50323E-02  3.88637E-02  1.91744E-02  5.23849E-02  3.93204E-02  7.58953E-02
   5.87765E-02  9.60278E-02  8.26827E-02  1.17175E-01  1.15122E-01  1.45643E-01  1.57631E-01  1.86705E-01  2.13937E-01  2.43223E-01
   2.87139E-01  3.17110E-01  3.66774E-01  3.95347E-01  4.69857E-01  5.42942E-01  5.65004E-01  5.98886E-01  5.83270E-01  5.88719E-01
   6.09782E-01  6.93593E-01  7.68774E-01  9.99113E-01  1.09745E+00  1.50772E+00  1.60070E+00  2.22302E+00  2.22573E+00  2.98692E+00
   2.80957E+00  3.58989E+00  3.20375E+00  3.89586E+00  3.34935E+00  3.91069E+00  3.26834E+00  3.69322E+00  3.09788E+00  3.39631E+00
   2.77754E+00  2.93352E+00  2.36365E+00  2.45780E+00  2.06423E+00  2.15895E+00  1.96984E+00  2.07791E+00  2.09542E+00  2.23929E+00
   2.44555E+00  2.59438E+00  2.89646E+00  3.02065E+00  3.35311E+00  3.50597E+00  3.68495E+00  3.75912E+00  3.77358E+00  3.76921E+00
   3.64014E+00  3.57636E+00  3.36494E+00  3.26595E+00  3.00126E+00  2.89114E+00  2.63679E+00  2.53837E+00  2.31743E+00  2.23477E+00
   2.03925E+00  1.97333E+00  1.81641E+00  1.76232E+00  1.61938E+00  1.57793E+00  1.46715E+00  1.46896E+00  1.49026E+00  1.52207E+00
   1.54558E+00  1.57099E+00  1.59100E+00  1.60950E+00  1.62176E+00  1.63183E+00  1.63440E+00  1.63773E+00  1.63044E+00  1.63194E+00
   1.61956E+00  1.62195E+00  1.59957E+00  1.59578E+00  1.55862E+00  1.54981E+00  1.50489E+00  1.49002E+00  1.44204E+00  1.41452E+00
   1.36978E+00  1.33455E+00  1.30057E+00  1.25837E+00  1.23905E+00  1.18994E+00  1.18663E+00  1.13878E+00  1.15054E+00  1.11422E+00
   1.13723E+00  1.11345E+00  1.14326E+00  1.13314E+00  1.17114E+00  1.18399E+00  1.22554E+00  1.25968E+00  1.29133E+00  1.33696E+00
   1.35811E+00  1.41502E+00  1.42503E+00  1.49983E+00  1.51641E+00  1.60204E+00  1.62589E+00  1.71221E+00  1.73279E+00  1.80763E+00
   1.81806E+00  1.87221E+00  1.86326E+00  1.89053E+00  1.86478E+00  1.88282E+00  1.86312E+00  1.88404E+00  1.88086E+00  1.90381E+00
   1.92826E+00  1.95615E+00  2.00383E+00  2.03293E+00  2.09660E+00  2.12470E+00  2.19340E+00  2.22519E+00  2.29495E+00  2.33725E+00
   2.40601E+00  2.46019E+00  2.52662E+00  2.59060E+00  2.64771E+00  2.71288E+00  2.76370E+00  2.83399E+00  2.87494E+00  2.94601E+00
   2.97233E+00  3.03999E+00  3.04393E+00  3.11432E+00  3.11500E+00  3.18189E+00  3.18945E+00  3.25006E+00  3.27268E+00  3.31634E+00
   3.35383E+00  3.39436E+00  3.50959E+00  3.58168E+00  3.63768E+00  3.68214E+00  3.71395E+00  3.75993E+00  3.89230E+00  4.03069E+00
   4.28505E+00  4.56783E+00  4.89419E+00  5.34403E+00  5.70847E+00  6.33879E+00  6.59810E+00  7.33511E+00  7.33461E+00  8.06940E+00
   7.74803E+00  8.38889E+00  7.80399E+00  8.31322E+00  7.53974E+00  7.89422E+00  7.05207E+00  7.27452E+00  6.42543E+00  6.53234E+00
   5.77406E+00  5.81105E+00  5.17220E+00  5.16370E+00  4.63038E+00  4.58299E+00  4.16823E+00  4.09717E+00  3.76206E+00  3.66060E+00
   3.42016E+00  3.32636E+00  3.29419E+00  3.28401E+00  3.27650E+00  3.28007E+00  3.28440E+00  3.29635E+00  3.30847E+00  3.32785E+00
   3.34612E+00  3.37106E+00  3.39416E+00  3.42467E+00  3.45273E+00  3.48949E+00  3.52391E+00  3.56739E+00  3.60920E+00  3.66038E+00
   3.70987E+00  3.76918E+00  3.82764E+00  3.89655E+00  3.96654E+00  4.04875E+00  4.13549E+00  4.24040E+00  4.36504E+00  4.53086E+00
   4.61539E+00  4.70614E+00  4.81054E+00  4.92178E+00  5.12247E+00  5.37827E+00  5.63545E+00  6.07738E+00  6.44662E+00  6.90314E+00
   7.21899E+00  7.57943E+00  7.68047E+00  7.86695E+00  7.82999E+00  7.82500E+00  7.85412E+00  7.77729E+00  8.25651E+00  8.64151E+00
   9.09264E+00  8.68146E+00  9.66822E+00  9.42262E+00  1.16151E+01  1.27653E+01  1.59831E+01  1.94828E+01  2.37961E+01  2.79435E+01
   3.24795E+01  3.64730E+01  4.04236E+01  4.40601E+01  4.74126E+01  5.03641E+01  5.31057E+01  5.49558E+01  5.66968E+01  5.78331E+01
   5.78722E+01  5.74405E+01  5.55184E+01  5.32272E+01  4.95145E+01  4.54362E+01  4.10998E+01  3.70357E+01  3.34381E+01  2.99626E+01
   2.74050E+01  2.47562E+01  2.33121E+01  2.12080E+01  2.02337E+01  1.84512E+01  1.79865E+01  1.69434E+01  1.72629E+01  1.74104E+01
   1.72185E+01  1.66072E+01  1.60806E+01  1.47213E+01  1.37877E+01  1.17440E+01  1.05287E+01  9.80233E+00  9.31286E+00  8.97428E+00
   8.73307E+00  8.56912E+00  8.45764E+00  8.39342E+00  8.36022E+00  8.35773E+00  8.37269E+00  8.40682E+00  8.44849E+00  8.50065E+00
   8.55255E+00  8.60763E+00  8.65562E+00  8.70048E+00  8.73271E+00  8.75704E+00  8.76470E+00  8.76099E+00  8.73788E+00  8.70153E+00
   8.64489E+00  8.57503E+00  8.48565E+00  8.38439E+00  8.26562E+00  8.13761E+00  7.99530E+00  7.84727E+00  7.68864E+00  7.52796E+00
   7.36037E+00  7.19440E+00  7.02504E+00  6.86052E+00  6.69545E+00  6.53760E+00  6.38131E+00  6.23404E+00  6.08977E+00  5.95556E+00
   5.82501E+00  5.70486E+00  5.58856E+00  5.48268E+00  5.38047E+00  5.28828E+00  5.19925E+00  5.11963E+00  5.04261E+00  4.97441E+00
   4.90817E+00  4.85005E+00  4.79318E+00  4.74379E+00  4.69511E+00  4.65337E+00  4.61179E+00  4.57657E+00  4.54101E+00  4.51138E+00
   4.48106E+00  4.45630E+00  4.43048E+00  4.40984E+00  4.38783E+00  4.37076E+00  4.35212E+00  4.33817E+00  4.32240E+00  4.31109E+00
   4.29780E+00  4.28883E+00  4.27777E+00  4.27086E+00  4.26168E+00  4.25651E+00  4.24900E+00  4.24543E+00  4.23944E+00  4.23726E+00
   4.23255E+00  4.23156E+00  4.22802E+00  4.22816E+00  4.22569E+00  4.22678E+00  4.22520E+00  4.22715E+00  4.22644E+00  4.22920E+00
   4.22924E+00  4.23269E+00  4.23338E+00  4.23746E+00  4.23880E+00  4.24349E+00  4.24537E+00  4.25056E+00  4.25294E+00  4.25863E+00
   4.26151E+00  4.26764E+00  4.27094E+00  4.27745E+00  4.28115E+00  4.28807E+00  4.29216E+00  4.29943E+00  4.30384E+00  4.31144E+00
   4.31620E+00  4.32415E+00  4.32925E+00  4.33750E+00  4.34291E+00  4.35149E+00  4.35726E+00  4.36622E+00
 NY background values follow
    -1.182E+00   -1.171E+00   -1.160E+00   -1.149E+00   -1.138E+00   -1.127E+00   -1.116E+00   -1.105E+00   -1.094E+00   -1.083E+00
    -1.073E+00   -1.062E+00   -1.051E+00   -1.040E+00   -1.029E+00   -1.018E+00   -1.007E+00   -9.960E-01   -9.850E-01   -9.741E-01
    -9.632E-01   -9.522E-01   -9.413E-01   -9.304E-01   -9.194E-01   -9.085E-01   -8.976E-01   -8.866E-01   -8.757E-01   -8.647E-01
    -8.538E-01   -8.429E-01   -8.319E-01   -8.210E-01   -8.101E-01   -7.991E-01   -7.882E-01   -7.773E-01   -7.663E-01   -7.554E-01
    -7.445E-01   -7.335E-01   -7.226E-01   -7.117E-01   -7.007E-01   -6.898E-01   -6.789E-01   -6.679E-01   -6.570E-01   -6.461E-01
    -6.351E-01   -6.242E-01   -6.133E-01   -6.023E-01   -5.914E-01   -5.805E-01   -5.695E-01   -5.586E-01   -5.477E-01   -5.367E-01
    -5.258E-01   -5.149E-01   -5.040E-01   -4.930E-01   -4.821E-01   -4.712E-01   -4.602E-01   -4.493E-01   -4.384E-01   -4.275E-01
    -4.165E-01   -4.056E-01   -3.947E-01   -3.838E-01   -3.728E-01   -3.619E-01   -3.510E-01   -3.401E-01   -3.291E-01   -3.182E-01
    -3.073E-01   -2.964E-01   -2.854E-01   -2.745E-01   -2.636E-01   -2.527E-01   -2.418E-01   -2.308E-01   -2.199E-01   -2.090E-01
    -1.981E-01   -1.872E-01   -1.763E-01   -1.653E-01   -1.544E-01   -1.435E-01   -1.326E-01   -1.217E-01   -1.108E-01   -9.986E-02
    -8.895E-02   -7.804E-02   -6.713E-02   -5.622E-02   -4.531E-02   -3.440E-02   -2.349E-02   -1.258E-02   -1.674E-03    9.233E-03
     2.014E-02    3.104E-02    4.195E-02    5.285E-02    6.375E-02    7.466E-02    8.556E-02    9.646E-02    1.074E-01    1.183E-01
     1.292E-01    1.401E-01    1.510E-01    1.619E-01    1.727E-01    1.836E-01    1.945E-01    2.054E-01    2.163E-01    2.272E-01
     2.381E-01    2.490E-01    2.599E-01    2.708E-01    2.817E-01    2.926E-01    3.034E-01    3.143E-01    3.252E-01    3.361E-01
     3.470E-01    3.579E-01    3.687E-01    3.796E-01    3.905E-01    4.014E-01    4.123E-01    4.231E-01    4.340E-01    4.449E-01
     4.558E-01    4.666E-01    4.775E-01    4.884E-01    4.993E-01    5.101E-01    5.210E-01    5.319E-01    5.427E-01    5.536E-01
     5.645E-01    5.753E-01    5.862E-01    5.971E-01    6.079E-01    6.188E-01    6.296E-01    6.405E-01    6.514E-01    6.622E-01
     6.731E-01    6.839E-01    6.948E-01    7.056E-01    7.165E-01    7.273E-01    7.382E-01    7.491E-01    7.599E-01    7.707E-01
     7.816E-01    7.924E-01    8.033E-01    8.141E-01    8.250E-01    8.358E-01    8.467E-01    8.575E-01    8.683E-01    8.792E-01
     8.900E-01    9.009E-01    9.117E-01    9.225E-01    9.334E-01    9.442E-01    9.550E-01    9.659E-01    9.767E-01    9.875E-01
     9.983E-01    1.009E+00    1.020E+00    1.031E+00    1.042E+00    1.052E+00    1.063E+00    1.074E+00    1.085E+00    1.096E+00
     1.107E+00    1.117E+00    1.128E+00    1.139E+00    1.150E+00    1.161E+00    1.171E+00    1.182E+00    1.193E+00    1.204E+00
     1.215E+00    1.225E+00    1.236E+00    1.247E+00    1.258E+00    1.269E+00    1.279E+00    1.290E+00    1.301E+00    1.312E+00
     1.323E+00    1.333E+00    1.344E+00    1.355E+00    1.366E+00    1.377E+00    1.387E+00    1.398E+00    1.409E+00    1.420E+00
     1.430E+00    1.441E+00    1.452E+00    1.463E+00    1.474E+00    1.484E+00    1.495E+00    1.506E+00    1.517E+00    1.527E+00
     1.538E+00    1.549E+00    1.560E+00    1.571E+00    1.581E+00    1.592E+00    1.603E+00    1.614E+00    1.624E+00    1.635E+00
     1.646E+00    1.657E+00    1.667E+00    1.678E+00    1.689E+00    1.700E+00    1.710E+00    1.721E+00    1.732E+00    1.743E+00
     1.753E+00    1.764E+00    1.775E+00    1.786E+00    1.796E+00    1.807E+00    1.818E+00    1.829E+00    1.839E+00    1.850E+00
     1.861E+00    1.871E+00    1.882E+00    1.893E+00    1.904E+00    1.914E+00    1.925E+00    1.936E+00    1.947E+00    1.957E+00
     1.968E+00    1.979E+00    1.989E+00    2.000E+00    2.011E+00    2.022E+00    2.032E+00    2.043E+00    2.054E+00    2.064E+00
     2.075E+00    2.086E+00    2.097E+00    2.107E+00    2.118E+00    2.129E+00    2.139E+00    2.150E+00    2.161E+00    2.171E+00
     2.182E+00    2.193E+00    2.204E+00    2.214E+00    2.225E+00    2.236E+00    2.246E+00    2.257E+00    2.268E+00    2.278E+00
     2.289E+00    2.300E+00    2.311E+00    2.321E+00    2.332E+00    2.343E+00    2.353E+00    2.364E+00    2.375E+00    2.385E+00
     2.396E+00    2.407E+00    2.417E+00    2.428E+00    2.439E+00    2.449E+00    2.460E+00    2.471E+00    2.481E+00    2.492E+00
     2.503E+00    2.513E+00    2.524E+00    2.535E+00    2.545E+00    2.556E+00    2.567E+00    2.577E+00    2.588E+00    2.599E+00
     2.609E+00    2.620E+00    2.631E+00    2.641E+00    2.652E+00    2.663E+00    2.673E+00    2.684E+00    2.695E+00    2.705E+00
     2.716E+00    2.727E+00    2.737E+00    2.748E+00    2.759E+00    2.769E+00    2.780E+00    2.791E+00    2.801E+00    2.812E+00
     2.823E+00    2.833E+00    2.844E+00    2.855E+00    2.865E+00    2.876E+00    2.886E+00    2.897E+00    2.908E+00    2.918E+00
     2.929E+00    2.940E+00    2.950E+00    2.961E+00    2.972E+00    2.982E+00    2.993E+00    3.004E+00    3.014E+00    3.025E+00
     3.035E+00    3.046E+00    3.057E+00    3.067E+00    3.078E+00    3.089E+00    3.099E+00    3.110E+00    3.121E+00    3.131E+00
     3.142E+00    3.152E+00    3.163E+00    3.174E+00    3.184E+00    3.195E+00    3.206E+00    3.216E+00    3.227E+00    3.237E+00
     3.248E+00    3.259E+00    3.269E+00    3.280E+00    3.291E+00    3.301E+00    3.312E+00    3.322E+00    3.333E+00    3.344E+00
     3.354E+00    3.365E+00    3.376E+00    3.386E+00    3.397E+00    3.407E+00    3.418E+00    3.429E+00    3.439E+00    3.450E+00
     3.461E+00    3.471E+00    3.482E+00    3.492E+00    3.503E+00    3.514E+00    3.524E+00    3.535E+00    3.546E+00    3.556E+00
     3.567E+00    3.577E+00    3.588E+00    3.599E+00    3.609E+00    3.620E+00    3.630E+00    3.641E+00    3.652E+00    3.662E+00
     3.673E+00    3.684E+00    3.694E+00    3.705E+00    3.715E+00    3.726E+00    3.737E+00    3.747E+00    3.758E+00    3.768E+00
     3.779E+00    3.790E+00    3.800E+00    3.811E+00    3.822E+00    3.832E+00    3.843E+00    3.853E+00    3.864E+00    3.875E+00
     3.885E+00    3.896E+00    3.906E+00    3.917E+00    3.928E+00    3.938E+00    3.949E+00    3.960E+00    3.970E+00    3.981E+00
     3.991E+00    4.002E+00    4.013E+00    4.023E+00    4.034E+00    4.044E+00    4.055E+00    4.066E+00    4.076E+00    4.087E+00
     4.098E+00    4.108E+00    4.119E+00    4.129E+00    4.140E+00    4.151E+00    4.161E+00    4.172E+00
 Ala      Conc. = 6.49E+02
