 LCModel (Version 6.3-1L) Copyright: S.W. Provencher.          Ref.: Magn. Reson. Med. 30:672-679 (1993).                
 Slice#1 Row#1 Col#12  K_02_press_1_raw_act
 36 lines in following concentration table = NCONC+1
    Conc.  %SD /Cr+PCr  Metabolite                                         
 1.27E+03  67%   0.000 Ala                                                 
   12.404 119%   0.000 Asp                                                 
    0.000 999%   0.000 Cr                                                  
    0.000 999%   0.000 PCr                                                 
    7.719 115%   0.000 GABA                                                
    7.769 114%   0.000 Glc                                                 
  110.205 430%   0.000 Gln                                                 
 1.98E+03  33%   0.000 Glu                                                 
    0.000 999%   0.000 GPC                                                 
   16.632 128%   0.000 PCh                                                 
    0.000 999%   0.000 GSH                                                 
   29.368 764%   0.000 Ins                                                 
 2.53E+03  48%   0.000 Lac                                                 
  210.097  36%   0.000 NAA                                                 
    0.000 999%   0.000 NAAG                                                
    2.711 108%   0.000 Scyllo                                              
   13.185 111%   0.000 Tau                                                 
    1.829 463%   0.000 -CrCH2                                              
   16.632 128%   0.000 GPC+PCh                                             
  210.097  36%   0.000 NAA+NAAG                                            
    0.000 999%   0.000 Cr+PCr                                              
 2.09E+03  40%   0.000 Glu+Gln                                             
 4.74E+03  27%   0.000 Lip13a                                              
    0.000 999%   0.000 Lip13b                                              
 2.59E+03  17%   0.000 Lip09                                               
 2.38E+03  17%   0.000 MM09                                                
    0.000 999%   0.000 Lip20                                               
    0.000 999%   0.000 MM20                                                
 1.63E+03  28%   0.000 MM12                                                
 1.32E+03  61%   0.000 MM14                                                
 1.00E+04   5%   0.000+MM17                                                
 4.74E+03  27%   0.000 Lip13a+Lip13b                                       
 7.69E+03  19%   0.000 MM14+Lip13a+Lip13b+MM12                             
 4.98E+03   9%   0.000 MM09+Lip09                                          
    0.000 999%   0.000 MM20+Lip20                                          
   6 lines in following misc. output table
  FWHM = 0.168 ppm    S/N =  16                                            
  Data shift = 0.306 ppm                                                   
  Ph:  97 deg      14.3 deg/ppm                                            
  alphaB,S = 8.5E+01,   4.1E+02                                            
    6 spline knots.   Ns = 9(2)                                            
   2 inflections.     1 extrema                                            
  498 points on ppm-axis = NY
      4.000000     3.992357     3.984714     3.977070     3.969427     3.961784     3.954141     3.946497     3.938854     3.931211
      3.923568     3.915925     3.908281     3.900638     3.892995     3.885352     3.877708     3.870065     3.862422     3.854779
      3.847136     3.839492     3.831849     3.824206     3.816563     3.808919     3.801276     3.793633     3.785990     3.778347
      3.770703     3.763060     3.755417     3.747774     3.740130     3.732487     3.724844     3.717201     3.709558     3.701914
      3.694271     3.686628     3.678985     3.671341     3.663698     3.656055     3.648412     3.640769     3.633125     3.625482
      3.617839     3.610196     3.602552     3.594909     3.587266     3.579623     3.571980     3.564336     3.556693     3.549050
      3.541407     3.533763     3.526120     3.518477     3.510834     3.503191     3.495547     3.487904     3.480261     3.472618
      3.464974     3.457331     3.449688     3.442045     3.434402     3.426758     3.419115     3.411472     3.403829     3.396185
      3.388542     3.380899     3.373256     3.365613     3.357969     3.350326     3.342683     3.335040     3.327396     3.319753
      3.312110     3.304467     3.296824     3.289180     3.281537     3.273894     3.266251     3.258607     3.250964     3.243321
      3.235678     3.228034     3.220391     3.212748     3.205105     3.197462     3.189818     3.182175     3.174532     3.166889
      3.159245     3.151602     3.143959     3.136316     3.128673     3.121029     3.113386     3.105743     3.098100     3.090456
      3.082813     3.075170     3.067527     3.059884     3.052240     3.044597     3.036954     3.029311     3.021667     3.014024
      3.006381     2.998738     2.991095     2.983451     2.975808     2.968165     2.960522     2.952878     2.945235     2.937592
      2.929949     2.922306     2.914662     2.907019     2.899376     2.891733     2.884089     2.876446     2.868803     2.861160
      2.853517     2.845873     2.838230     2.830587     2.822944     2.815300     2.807657     2.800014     2.792371     2.784728
      2.777084     2.769441     2.761798     2.754155     2.746511     2.738868     2.731225     2.723582     2.715939     2.708295
      2.700652     2.693009     2.685366     2.677722     2.670079     2.662436     2.654793     2.647150     2.639506     2.631863
      2.624220     2.616577     2.608933     2.601290     2.593647     2.586004     2.578361     2.570717     2.563074     2.555431
      2.547788     2.540144     2.532501     2.524858     2.517215     2.509572     2.501928     2.494285     2.486642     2.478999
      2.471355     2.463712     2.456069     2.448426     2.440783     2.433139     2.425496     2.417853     2.410210     2.402566
      2.394923     2.387280     2.379637     2.371994     2.364350     2.356707     2.349064     2.341421     2.333777     2.326134
      2.318491     2.310848     2.303205     2.295561     2.287918     2.280275     2.272632     2.264988     2.257345     2.249702
      2.242059     2.234416     2.226772     2.219129     2.211486     2.203843     2.196199     2.188556     2.180913     2.173270
      2.165627     2.157983     2.150340     2.142697     2.135054     2.127410     2.119767     2.112124     2.104481     2.096838
      2.089194     2.081551     2.073908     2.066265     2.058621     2.050978     2.043335     2.035692     2.028049     2.020405
      2.012762     2.005119     1.997476     1.989833     1.982190     1.974546     1.966903     1.959260     1.951617     1.943974
      1.936331     1.928688     1.921045     1.913402     1.905759     1.898115     1.890472     1.882829     1.875186     1.867543
      1.859900     1.852257     1.844614     1.836971     1.829327     1.821684     1.814041     1.806398     1.798755     1.791112
      1.783469     1.775826     1.768183     1.760540     1.752896     1.745253     1.737610     1.729967     1.722324     1.714681
      1.707038     1.699395     1.691752     1.684108     1.676465     1.668822     1.661179     1.653536     1.645893     1.638250
      1.630607     1.622964     1.615321     1.607677     1.600034     1.592391     1.584748     1.577105     1.569462     1.561819
      1.554176     1.546533     1.538890     1.531246     1.523603     1.515960     1.508317     1.500674     1.493031     1.485388
      1.477745     1.470102     1.462458     1.454815     1.447172     1.439529     1.431886     1.424243     1.416600     1.408957
      1.401314     1.393671     1.386027     1.378384     1.370741     1.363098     1.355455     1.347812     1.340169     1.332526
      1.324883     1.317240     1.309596     1.301953     1.294310     1.286667     1.279024     1.271381     1.263738     1.256095
      1.248452     1.240808     1.233165     1.225522     1.217879     1.210236     1.202593     1.194950     1.187307     1.179664
      1.172021     1.164377     1.156734     1.149091     1.141448     1.133805     1.126162     1.118519     1.110876     1.103233
      1.095590     1.087946     1.080303     1.072660     1.065017     1.057374     1.049731     1.042088     1.034445     1.026802
      1.019158     1.011515     1.003872     0.996229     0.988586     0.980943     0.973300     0.965657     0.958014     0.950371
      0.942727     0.935084     0.927441     0.919798     0.912155     0.904512     0.896869     0.889226     0.881583     0.873940
      0.866296     0.858653     0.851010     0.843367     0.835724     0.828081     0.820438     0.812795     0.805152     0.797508
      0.789865     0.782222     0.774579     0.766936     0.759293     0.751650     0.744007     0.736364     0.728721     0.721077
      0.713434     0.705791     0.698148     0.690505     0.682862     0.675219     0.667576     0.659933     0.652290     0.644646
      0.637003     0.629360     0.621717     0.614074     0.606431     0.598788     0.591145     0.583502     0.575858     0.568215
      0.560572     0.552929     0.545286     0.537643     0.530000     0.522357     0.514714     0.507071     0.499427     0.491784
      0.484141     0.476498     0.468855     0.461212     0.453569     0.445925     0.438282     0.430639     0.422996     0.415353
      0.407710     0.400067     0.392424     0.384780     0.377137     0.369494     0.361851     0.354208     0.346565     0.338922
      0.331278     0.323635     0.315992     0.308349     0.300706     0.293063     0.285420     0.277777     0.270133     0.262490
      0.254847     0.247204     0.239561     0.231918     0.224275     0.216631     0.208988     0.201345
 NY phased data points follow
  -6.36156E+00 -7.14103E+00 -4.84488E+00 -6.12024E+00 -4.96511E+00 -2.48107E+00 -6.82276E+00 -8.41977E+00 -5.22413E+00 -5.89344E+00
  -3.26226E+00 -3.92436E+00 -8.40218E+00 -3.19929E+00 -6.17822E+00 -4.17542E+00 -5.48365E+00 -8.34358E+00 -1.90080E+00 -4.77605E+00
  -4.33798E+00 -1.06480E+00 -5.24587E+00 -5.69638E+00 -2.58046E+00 -5.32905E+00 -4.53378E+00 -3.15987E+00 -2.12948E+00 -5.48058E+00
  -1.21648E+00 -2.30613E+00 -2.92187E+00 -6.41744E+00 -4.38442E+00 -4.00679E+00 -1.42482E+00 -5.28436E+00 -2.96707E+00 -2.67502E+00
  -4.46905E+00 -3.84403E-01 -4.36706E+00 -4.10194E+00 -3.06297E+00 -2.27182E+00 -3.91891E+00 -6.35468E-01 -1.55759E+00 -4.34392E+00
  -1.40726E+00 -3.88208E+00 -2.51498E-01 -4.23041E+00 -2.51233E+00 -4.74672E+00  1.97416E-02 -2.26327E+00 -4.08088E+00 -5.33069E+00
  -6.88513E+00 -2.40578E+00 -3.70714E+00 -5.64209E+00 -6.70018E+00 -6.01817E+00 -4.28308E+00 -4.61147E+00 -7.82996E+00 -6.36555E+00
  -4.37300E+00 -2.81649E+00 -4.75465E+00 -4.66919E+00 -3.96000E+00 -7.55486E-01 -2.82463E+00 -5.08324E+00 -3.05467E+00 -3.37942E+00
  -2.30697E+00 -6.13154E+00 -2.78430E+00 -3.98614E+00 -2.91578E+00 -2.97738E+00 -2.68430E+00 -3.76353E+00 -5.42228E+00 -3.79121E+00
  -3.29397E+00 -5.99023E+00 -5.32465E+00 -3.28708E+00 -6.05322E+00 -5.65619E+00 -5.81430E-01 -3.35391E+00 -1.76682E+00 -5.45191E+00
  -3.63934E+00 -1.03910E+00 -1.44317E+00 -1.32508E+00 -4.90180E+00 -3.38354E+00 -4.66282E+00 -4.84843E+00 -3.93501E+00 -5.71194E+00
  -4.91159E+00 -1.99895E+00 -2.51240E+00 -1.98934E+00 -4.51124E+00 -2.66389E+00 -1.06323E+00 -5.66398E+00 -1.58510E+00 -4.47351E+00
  -4.05194E+00 -9.05525E-01 -6.36720E+00 -1.22844E+00 -4.75449E+00 -3.49699E+00 -1.45840E+00 -1.27512E+00 -3.01605E+00 -4.11109E+00
  -4.05128E+00 -1.73009E+00 -4.34628E+00 -2.78430E+00 -4.78927E+00 -3.16982E+00 -3.45708E+00 -5.61388E+00 -2.63725E+00 -4.93224E+00
  -3.71454E+00 -2.12160E+00 -5.59235E+00 -2.65715E+00 -3.74366E+00 -5.45838E+00 -4.73091E+00 -2.01278E+00 -6.81197E+00 -3.30270E+00
  -2.79973E+00 -2.55560E+00 -3.51351E-02 -4.24004E+00 -1.26527E+00 -3.45666E+00 -2.19807E+00 -9.45679E-01 -4.43214E+00 -2.78504E+00
  -3.46359E+00 -3.90807E+00 -3.71425E+00 -3.09482E+00  8.95147E-01 -3.44177E+00 -3.64916E+00 -2.36017E+00 -3.46804E+00 -6.04294E-01
  -1.42659E+00 -2.27205E+00 -4.26801E+00 -2.55507E+00 -2.92681E+00 -3.90362E+00 -3.34362E+00 -1.36866E+00 -1.80064E+00 -1.75508E-01
  -2.37765E+00 -3.53717E+00 -4.58830E+00 -2.14321E+00  5.45274E-02 -2.28848E+00 -1.42711E+00 -1.07337E+00 -3.38342E+00 -4.05761E+00
  -1.23102E+00 -7.48973E+00 -3.90496E+00 -5.90449E-01 -2.17798E+00 -2.99932E+00 -2.63513E+00 -3.41679E+00 -1.83451E+00 -2.53832E+00
  -1.96841E+00 -1.05854E+00 -2.89345E+00 -3.78045E+00 -2.45071E+00 -3.84969E+00 -2.37864E+00 -3.99430E+00 -7.87304E-01 -4.83993E+00
  -3.56751E+00 -3.05278E+00 -1.80733E+00 -8.38863E-01 -1.81271E+00  1.02519E+00 -1.76858E+00 -4.22691E+00  2.57666E-01 -2.23846E+00
  -3.00670E+00 -3.96488E+00 -5.46280E+00 -1.02038E+00 -4.34078E+00 -8.48283E+00 -5.35669E+00 -1.75743E+00 -5.30876E+00 -2.57507E+00
  -1.02064E+00  1.37978E+00 -3.24288E+00 -3.82369E+00 -2.14240E+00 -6.21264E+00 -4.49763E+00 -3.54286E+00 -2.39713E+00 -9.67541E-01
  -1.89318E+00  1.09397E+00  1.99853E-01 -4.34534E-01 -3.19469E+00 -1.87407E+00  3.21574E-01 -5.63011E+00 -2.08842E+00  1.03084E-01
   9.16876E-02  9.10455E-01  2.16303E-01  1.27267E+00  3.81415E+00  5.25460E-01  2.06292E+00  1.15849E+00  1.33294E+00  6.06517E-01
   4.50842E-01  3.35503E+00  1.63593E+00  2.99876E+00  4.28304E+00  5.36208E+00  6.38450E+00  4.02422E+00  5.80963E+00  2.89949E-01
   3.08922E+00  3.91601E+00  4.17535E+00  1.70147E+00  4.55283E+00  4.25941E+00  6.72665E+00  3.63453E+00  2.62543E-02  5.50584E+00
   4.53782E+00  5.37558E-01  1.92828E+00  3.62135E+00  4.81066E+00  7.58194E+00  5.75480E+00  7.71862E+00  8.41584E+00  8.65187E+00
   1.21785E+01  1.40609E+01  1.72129E+01  1.73536E+01  2.52188E+01  2.59581E+01  2.82648E+01  2.82169E+01  3.74817E+01  3.82065E+01
   4.05633E+01  4.78678E+01  4.97175E+01  5.20753E+01  5.65485E+01  5.98553E+01  6.28980E+01  6.65018E+01  7.07777E+01  6.87119E+01
   7.01243E+01  7.05790E+01  6.81951E+01  7.02377E+01  6.84982E+01  6.56481E+01  6.23833E+01  5.52972E+01  5.26453E+01  4.66218E+01
   4.69210E+01  3.96961E+01  3.68413E+01  3.59199E+01  3.54979E+01  3.21196E+01  3.16404E+01  2.52671E+01  2.62404E+01  2.68667E+01
   2.69917E+01  2.34391E+01  2.63752E+01  2.35793E+01  2.29819E+01  1.91593E+01  2.19155E+01  2.54095E+01  2.67248E+01  2.23681E+01
   2.25612E+01  2.37043E+01  2.79586E+01  2.43057E+01  2.55781E+01  2.78222E+01  2.64128E+01  2.39741E+01  2.75593E+01  2.67553E+01
   2.65584E+01  2.74143E+01  2.61846E+01  2.63253E+01  2.83021E+01  2.69710E+01  2.74596E+01  2.50795E+01  2.74944E+01  3.38027E+01
   3.19859E+01  3.22174E+01  3.09463E+01  2.80037E+01  3.10301E+01  3.29540E+01  3.16021E+01  3.24549E+01  3.19417E+01  3.24887E+01
   2.92569E+01  2.93627E+01  2.67631E+01  3.13258E+01  2.95057E+01  2.44813E+01  3.19903E+01  2.72301E+01  2.74461E+01  3.08056E+01
   2.44197E+01  2.67301E+01  2.40780E+01  2.98833E+01  2.46681E+01  2.44155E+01  2.73763E+01  2.20689E+01  2.57865E+01  2.69578E+01
   2.52267E+01  2.53070E+01  2.26766E+01  2.38187E+01  2.21754E+01  2.27417E+01  2.41982E+01  1.95236E+01  2.14044E+01  1.95003E+01
   1.93297E+01  2.13981E+01  2.12592E+01  2.01317E+01  1.83543E+01  1.72594E+01  1.69176E+01  1.75805E+01  1.57747E+01  1.80774E+01
   2.10758E+01  1.34657E+01  1.80322E+01  1.39562E+01  1.64019E+01  1.28714E+01  1.34104E+01  1.44383E+01  1.33317E+01  1.39459E+01
   1.28693E+01  1.57954E+01  1.24607E+01  1.30676E+01  1.17930E+01  1.24708E+01  1.42902E+01  1.06162E+01  1.12475E+01  1.39555E+01
   6.96799E+00  1.16265E+01  8.09472E+00  8.44332E+00  8.62113E+00  7.50975E+00  8.89007E+00  9.97591E+00  8.60676E+00  5.91167E+00
   9.49872E+00  7.22551E+00  6.63401E+00  3.94849E+00  4.59918E+00  6.80321E+00  6.13204E+00  5.74989E+00  6.17412E+00  5.18710E+00
   5.57388E+00  6.62372E+00  2.84228E+00  4.04597E+00  4.91781E+00  4.72390E+00  4.03340E+00  4.80787E+00  4.57956E+00 -2.27053E+00
   1.89882E+00  2.17705E+00  4.69811E+00  1.65739E+00  2.67045E+00  9.78257E-01  1.89315E+00  3.89544E-01 -1.05389E+00  1.28682E+00
   6.10340E-01  9.72173E-01  4.67196E+00  1.06023E+00  1.61473E+00  4.66725E+00 -1.60798E+00  3.82109E-01  1.08691E+00 -1.89245E+00
  -6.15121E-01  2.27096E-01  5.45167E-01 -6.05990E-01 -6.94564E-01  1.98771E+00 -2.24865E+00 -5.37642E-02  7.05938E-01 -2.73441E+00
   2.51728E+00  1.06942E+00  6.68222E-01  6.66779E-01  1.35116E-01  3.71095E-01  4.70868E-01 -8.14972E-01
 NY points of the fit to the data follow
  -5.28938E+00 -4.72320E+00 -5.18179E+00 -4.65472E+00 -4.95555E+00 -4.47873E+00 -4.70742E+00 -4.35706E+00 -4.50663E+00 -4.30120E+00
  -4.43310E+00 -4.33852E+00 -4.45211E+00 -4.33458E+00 -4.38435E+00 -4.24599E+00 -4.18290E+00 -4.05510E+00 -3.92365E+00 -3.85544E+00
  -3.73706E+00 -3.72658E+00 -3.57787E+00 -3.64904E+00 -3.45635E+00 -3.62193E+00 -3.37591E+00 -3.63172E+00 -3.32186E+00 -3.66542E+00
  -3.28418E+00 -3.70102E+00 -3.23754E+00 -3.70398E+00 -3.15785E+00 -3.66360E+00 -3.06929E+00 -3.63180E+00 -3.05383E+00 -3.67545E+00
  -3.15519E+00 -3.77682E+00 -3.26986E+00 -3.82053E+00 -3.31575E+00 -3.77360E+00 -3.31190E+00 -3.68850E+00 -3.35121E+00 -3.72947E+00
  -3.56107E+00 -3.88355E+00 -3.79901E+00 -4.02219E+00 -3.95211E+00 -4.04598E+00 -3.95833E+00 -4.00478E+00 -3.97890E+00 -4.01282E+00
  -4.04123E+00 -4.06060E+00 -4.08219E+00 -4.09848E+00 -4.11291E+00 -4.12136E+00 -4.12963E+00 -4.13157E+00 -4.13301E+00 -4.12960E+00
  -4.12602E+00 -4.12176E+00 -4.11601E+00 -4.11326E+00 -4.10547E+00 -4.10484E+00 -4.09547E+00 -4.09677E+00 -4.08568E+00 -4.08856E+00
  -4.07555E+00 -4.07862E+00 -4.06389E+00 -4.06631E+00 -4.04734E+00 -4.03345E+00 -4.00093E+00 -3.97914E+00 -3.93417E+00 -3.91117E+00
  -3.85572E+00 -3.83758E+00 -3.77361E+00 -3.76191E+00 -3.68918E+00 -3.68541E+00 -3.60469E+00 -3.60852E+00 -3.52034E+00 -3.53552E+00
  -3.44318E+00 -3.47276E+00 -3.38009E+00 -3.42666E+00 -3.33736E+00 -3.40130E+00 -3.31983E+00 -3.40165E+00 -3.33240E+00 -3.42867E+00
  -3.37651E+00 -3.47734E+00 -3.44026E+00 -3.53483E+00 -3.50944E+00 -3.59371E+00 -3.57877E+00 -3.65233E+00 -3.64676E+00 -3.70728E+00
  -3.70845E+00 -3.75019E+00 -3.75347E+00 -3.77377E+00 -3.77279E+00 -3.76753E+00 -3.75746E+00 -3.74936E+00 -3.73811E+00 -3.72917E+00
  -3.71727E+00 -3.70809E+00 -3.69601E+00 -3.68671E+00 -3.67463E+00 -3.66518E+00 -3.65314E+00 -3.64334E+00 -3.63128E+00 -3.62095E+00
  -3.60880E+00 -3.59796E+00 -3.58685E+00 -3.57825E+00 -3.56774E+00 -3.56122E+00 -3.54946E+00 -3.54266E+00 -3.53071E+00 -3.52363E+00
  -3.51242E+00 -3.50537E+00 -3.49559E+00 -3.48898E+00 -3.48113E+00 -3.47556E+00 -3.46996E+00 -3.46593E+00 -3.46417E+00 -3.46073E+00
  -3.46022E+00 -3.45638E+00 -3.45685E+00 -3.45489E+00 -3.45481E+00 -3.45361E+00 -3.45136E+00 -3.45039E+00 -3.44657E+00 -3.44834E+00
  -3.44012E+00 -3.44323E+00 -3.42765E+00 -3.43070E+00 -3.40557E+00 -3.40710E+00 -3.37264E+00 -3.37149E+00 -3.32858E+00 -3.32303E+00
  -3.27268E+00 -3.26156E+00 -3.20507E+00 -3.18491E+00 -3.11919E+00 -3.08024E+00 -3.00085E+00 -2.93309E+00 -2.83918E+00 -2.76817E+00
  -2.66566E+00 -2.61201E+00 -2.54939E+00 -2.51372E+00 -2.49855E+00 -2.45791E+00 -2.44750E+00 -2.33808E+00 -2.20482E+00 -2.08598E+00
  -1.84753E+00 -1.79407E+00 -1.49742E+00 -1.61222E+00 -1.38231E+00 -1.70163E+00 -1.47822E+00 -1.93015E+00 -1.67779E+00 -2.19129E+00
  -1.86302E+00 -2.39833E+00 -2.00322E+00 -2.56560E+00 -2.12597E+00 -2.71613E+00 -2.27179E+00 -2.87973E+00 -2.46468E+00 -3.05603E+00
  -2.71501E+00 -3.22144E+00 -2.97434E+00 -3.31719E+00 -3.12613E+00 -3.27967E+00 -3.05939E+00 -3.02766E+00 -2.78317E+00 -2.66080E+00
  -2.44793E+00 -2.30345E+00 -2.19264E+00 -2.05519E+00 -1.95999E+00 -1.79891E+00 -1.61873E+00 -1.43416E+00 -1.12634E+00 -1.05732E+00
  -7.92254E-01 -8.62088E-01 -5.88244E-01 -7.47741E-01 -5.10962E-01 -6.64360E-01 -3.43675E-01 -3.82610E-01 -4.72343E-02  4.03959E-02
   3.40738E-01  5.36216E-01  7.52349E-01  1.03280E+00  1.15566E+00  1.54076E+00  1.58272E+00  2.06730E+00  2.01763E+00  2.56629E+00
   2.40315E+00  2.96494E+00  2.68344E+00  3.21130E+00  2.84103E+00  3.29576E+00  2.88933E+00  3.27558E+00  2.86083E+00  3.16782E+00
   2.79373E+00  3.03575E+00  2.71366E+00  2.90321E+00  2.66635E+00  2.84253E+00  2.71178E+00  2.89415E+00  2.89054E+00  3.11690E+00
   3.26146E+00  3.59807E+00  3.98234E+00  4.48915E+00  5.06790E+00  5.77338E+00  6.61159E+00  7.58310E+00  8.74797E+00  1.00927E+01
   1.16776E+01  1.34928E+01  1.55926E+01  1.79657E+01  2.06489E+01  2.36293E+01  2.69102E+01  3.04572E+01  3.42408E+01  3.82054E+01
   4.22863E+01  4.64055E+01  5.04694E+01  5.43862E+01  5.80518E+01  6.13719E+01  6.42539E+01  6.66280E+01  6.84521E+01  6.97364E+01
   7.02648E+01  7.01269E+01  6.93119E+01  6.77280E+01  6.57272E+01  6.28616E+01  5.99607E+01  5.62712E+01  5.31582E+01  4.90520E+01
   4.62149E+01  4.20385E+01  3.98323E+01  3.57980E+01  3.44067E+01  3.06475E+01  3.01708E+01  2.67822E+01  2.73254E+01  2.45980E+01
   2.58617E+01  2.33826E+01  2.51231E+01  2.27132E+01  2.47068E+01  2.22255E+01  2.42760E+01  2.22352E+01  2.43943E+01  2.28067E+01
   2.49019E+01  2.37347E+01  2.55606E+01  2.47211E+01  2.61554E+01  2.56456E+01  2.66985E+01  2.64584E+01  2.71817E+01  2.72064E+01
   2.75514E+01  2.75247E+01  2.75958E+01  2.76724E+01  2.76856E+01  2.79982E+01  2.81023E+01  2.87522E+01  2.91479E+01  2.98177E+01
   3.02198E+01  3.06082E+01  3.08918E+01  3.09856E+01  3.11625E+01  3.11603E+01  3.12761E+01  3.12718E+01  3.13337E+01  3.12913E+01
   3.10016E+01  3.03991E+01  2.98572E+01  2.89863E+01  2.83455E+01  2.74726E+01  2.69003E+01  2.65161E+01  2.62480E+01  2.60665E+01
   2.59527E+01  2.58914E+01  2.58676E+01  2.58665E+01  2.58728E+01  2.58715E+01  2.58480E+01  2.57895E+01  2.56847E+01  2.55250E+01
   2.53045E+01  2.50207E+01  2.46737E+01  2.42671E+01  2.38070E+01  2.33018E+01  2.27616E+01  2.21978E+01  2.16218E+01  2.10452E+01
   2.04788E+01  1.99321E+01  1.94130E+01  1.89275E+01  1.84796E+01  1.80714E+01  1.77027E+01  1.73721E+01  1.70760E+01  1.68100E+01
   1.65685E+01  1.63454E+01  1.61341E+01  1.59284E+01  1.57219E+01  1.55090E+01  1.52844E+01  1.50441E+01  1.47846E+01  1.45037E+01
   1.41998E+01  1.38726E+01  1.35224E+01  1.31506E+01  1.27590E+01  1.23500E+01  1.19267E+01  1.14921E+01  1.10496E+01  1.06028E+01
   1.01547E+01  9.70878E+00  9.26779E+00  8.83452E+00  8.41121E+00  7.99995E+00  7.60227E+00  7.21954E+00  6.85261E+00  6.50222E+00
   6.16862E+00  5.85204E+00  5.55226E+00  5.26910E+00  5.00203E+00  4.75065E+00  4.51422E+00  4.29218E+00  4.08369E+00  3.88815E+00
   3.70471E+00  3.53275E+00  3.37146E+00  3.22026E+00  3.07839E+00  2.94532E+00  2.82037E+00  2.70310E+00  2.59287E+00  2.48930E+00
   2.39184E+00  2.30018E+00  2.21382E+00  2.13251E+00  2.05582E+00  1.98352E+00  1.91524E+00  1.85081E+00  1.78990E+00  1.73238E+00
   1.67793E+00  1.62646E+00  1.57770E+00  1.53158E+00  1.48784E+00  1.44645E+00  1.40717E+00  1.36997E+00  1.33465E+00  1.30120E+00
   1.26942E+00  1.23932E+00  1.21070E+00  1.18360E+00  1.15784E+00  1.13344E+00  1.11026E+00  1.08831E+00  1.06746E+00  1.04773E+00
   1.02901E+00  1.01133E+00  9.94562E-01  9.78763E-01  9.63807E-01  9.49771E-01  9.36540E-01  9.24204E-01
 NY background values follow
    -5.239E+00   -5.228E+00   -5.217E+00   -5.206E+00   -5.195E+00   -5.184E+00   -5.173E+00   -5.162E+00   -5.151E+00   -5.140E+00
    -5.129E+00   -5.118E+00   -5.107E+00   -5.096E+00   -5.085E+00   -5.074E+00   -5.063E+00   -5.052E+00   -5.041E+00   -5.030E+00
    -5.019E+00   -5.008E+00   -4.997E+00   -4.986E+00   -4.975E+00   -4.964E+00   -4.953E+00   -4.942E+00   -4.931E+00   -4.920E+00
    -4.909E+00   -4.898E+00   -4.888E+00   -4.877E+00   -4.866E+00   -4.855E+00   -4.844E+00   -4.833E+00   -4.822E+00   -4.811E+00
    -4.800E+00   -4.789E+00   -4.778E+00   -4.767E+00   -4.756E+00   -4.745E+00   -4.734E+00   -4.723E+00   -4.712E+00   -4.702E+00
    -4.691E+00   -4.680E+00   -4.669E+00   -4.658E+00   -4.647E+00   -4.636E+00   -4.625E+00   -4.614E+00   -4.603E+00   -4.592E+00
    -4.581E+00   -4.571E+00   -4.560E+00   -4.549E+00   -4.538E+00   -4.527E+00   -4.516E+00   -4.505E+00   -4.494E+00   -4.484E+00
    -4.473E+00   -4.462E+00   -4.451E+00   -4.440E+00   -4.429E+00   -4.418E+00   -4.407E+00   -4.397E+00   -4.386E+00   -4.375E+00
    -4.364E+00   -4.353E+00   -4.342E+00   -4.332E+00   -4.321E+00   -4.310E+00   -4.299E+00   -4.288E+00   -4.277E+00   -4.267E+00
    -4.256E+00   -4.245E+00   -4.234E+00   -4.223E+00   -4.213E+00   -4.202E+00   -4.191E+00   -4.180E+00   -4.169E+00   -4.159E+00
    -4.148E+00   -4.137E+00   -4.126E+00   -4.116E+00   -4.105E+00   -4.094E+00   -4.083E+00   -4.073E+00   -4.062E+00   -4.051E+00
    -4.040E+00   -4.030E+00   -4.019E+00   -4.008E+00   -3.997E+00   -3.987E+00   -3.976E+00   -3.965E+00   -3.955E+00   -3.944E+00
    -3.933E+00   -3.922E+00   -3.912E+00   -3.901E+00   -3.890E+00   -3.880E+00   -3.869E+00   -3.858E+00   -3.848E+00   -3.837E+00
    -3.826E+00   -3.816E+00   -3.805E+00   -3.794E+00   -3.784E+00   -3.773E+00   -3.762E+00   -3.752E+00   -3.741E+00   -3.731E+00
    -3.720E+00   -3.709E+00   -3.699E+00   -3.688E+00   -3.678E+00   -3.667E+00   -3.656E+00   -3.646E+00   -3.635E+00   -3.625E+00
    -3.614E+00   -3.604E+00   -3.593E+00   -3.582E+00   -3.572E+00   -3.561E+00   -3.551E+00   -3.540E+00   -3.530E+00   -3.519E+00
    -3.509E+00   -3.498E+00   -3.488E+00   -3.477E+00   -3.467E+00   -3.456E+00   -3.446E+00   -3.435E+00   -3.425E+00   -3.414E+00
    -3.404E+00   -3.393E+00   -3.383E+00   -3.372E+00   -3.362E+00   -3.352E+00   -3.341E+00   -3.331E+00   -3.320E+00   -3.310E+00
    -3.299E+00   -3.289E+00   -3.279E+00   -3.268E+00   -3.258E+00   -3.247E+00   -3.237E+00   -3.227E+00   -3.216E+00   -3.206E+00
    -3.196E+00   -3.185E+00   -3.175E+00   -3.165E+00   -3.154E+00   -3.144E+00   -3.134E+00   -3.123E+00   -3.113E+00   -3.103E+00
    -3.092E+00   -3.082E+00   -3.072E+00   -3.061E+00   -3.051E+00   -3.041E+00   -3.030E+00   -3.020E+00   -3.010E+00   -3.000E+00
    -2.989E+00   -2.979E+00   -2.969E+00   -2.959E+00   -2.948E+00   -2.938E+00   -2.928E+00   -2.918E+00   -2.907E+00   -2.897E+00
    -2.887E+00   -2.877E+00   -2.867E+00   -2.856E+00   -2.846E+00   -2.836E+00   -2.826E+00   -2.816E+00   -2.805E+00   -2.795E+00
    -2.785E+00   -2.775E+00   -2.765E+00   -2.754E+00   -2.744E+00   -2.734E+00   -2.724E+00   -2.714E+00   -2.704E+00   -2.694E+00
    -2.683E+00   -2.673E+00   -2.663E+00   -2.653E+00   -2.643E+00   -2.633E+00   -2.623E+00   -2.613E+00   -2.603E+00   -2.593E+00
    -2.582E+00   -2.572E+00   -2.562E+00   -2.552E+00   -2.542E+00   -2.532E+00   -2.522E+00   -2.512E+00   -2.502E+00   -2.492E+00
    -2.482E+00   -2.472E+00   -2.462E+00   -2.452E+00   -2.442E+00   -2.432E+00   -2.422E+00   -2.412E+00   -2.402E+00   -2.392E+00
    -2.382E+00   -2.372E+00   -2.362E+00   -2.352E+00   -2.342E+00   -2.332E+00   -2.322E+00   -2.312E+00   -2.302E+00   -2.292E+00
    -2.282E+00   -2.272E+00   -2.262E+00   -2.252E+00   -2.242E+00   -2.232E+00   -2.222E+00   -2.212E+00   -2.202E+00   -2.192E+00
    -2.182E+00   -2.172E+00   -2.162E+00   -2.153E+00   -2.143E+00   -2.133E+00   -2.123E+00   -2.113E+00   -2.103E+00   -2.093E+00
    -2.083E+00   -2.073E+00   -2.063E+00   -2.054E+00   -2.044E+00   -2.034E+00   -2.024E+00   -2.014E+00   -2.004E+00   -1.994E+00
    -1.985E+00   -1.975E+00   -1.965E+00   -1.955E+00   -1.945E+00   -1.935E+00   -1.925E+00   -1.916E+00   -1.906E+00   -1.896E+00
    -1.886E+00   -1.876E+00   -1.867E+00   -1.857E+00   -1.847E+00   -1.837E+00   -1.827E+00   -1.818E+00   -1.808E+00   -1.798E+00
    -1.788E+00   -1.778E+00   -1.769E+00   -1.759E+00   -1.749E+00   -1.739E+00   -1.730E+00   -1.720E+00   -1.710E+00   -1.700E+00
    -1.691E+00   -1.681E+00   -1.671E+00   -1.661E+00   -1.652E+00   -1.642E+00   -1.632E+00   -1.622E+00   -1.613E+00   -1.603E+00
    -1.593E+00   -1.583E+00   -1.574E+00   -1.564E+00   -1.554E+00   -1.545E+00   -1.535E+00   -1.525E+00   -1.516E+00   -1.506E+00
    -1.496E+00   -1.486E+00   -1.477E+00   -1.467E+00   -1.457E+00   -1.448E+00   -1.438E+00   -1.428E+00   -1.419E+00   -1.409E+00
    -1.399E+00   -1.390E+00   -1.380E+00   -1.370E+00   -1.361E+00   -1.351E+00   -1.341E+00   -1.332E+00   -1.322E+00   -1.313E+00
    -1.303E+00   -1.293E+00   -1.284E+00   -1.274E+00   -1.264E+00   -1.255E+00   -1.245E+00   -1.236E+00   -1.226E+00   -1.216E+00
    -1.207E+00   -1.197E+00   -1.187E+00   -1.178E+00   -1.168E+00   -1.159E+00   -1.149E+00   -1.140E+00   -1.130E+00   -1.120E+00
    -1.111E+00   -1.101E+00   -1.092E+00   -1.082E+00   -1.072E+00   -1.063E+00   -1.053E+00   -1.044E+00   -1.034E+00   -1.025E+00
    -1.015E+00   -1.006E+00   -9.960E-01   -9.864E-01   -9.769E-01   -9.673E-01   -9.578E-01   -9.482E-01   -9.387E-01   -9.291E-01
    -9.196E-01   -9.101E-01   -9.005E-01   -8.910E-01   -8.815E-01   -8.720E-01   -8.624E-01   -8.529E-01   -8.434E-01   -8.339E-01
    -8.244E-01   -8.148E-01   -8.053E-01   -7.958E-01   -7.863E-01   -7.768E-01   -7.673E-01   -7.578E-01   -7.483E-01   -7.388E-01
    -7.293E-01   -7.198E-01   -7.103E-01   -7.009E-01   -6.914E-01   -6.819E-01   -6.724E-01   -6.629E-01   -6.534E-01   -6.440E-01
    -6.345E-01   -6.250E-01   -6.155E-01   -6.061E-01   -5.966E-01   -5.871E-01   -5.777E-01   -5.682E-01   -5.588E-01   -5.493E-01
    -5.398E-01   -5.304E-01   -5.209E-01   -5.115E-01   -5.020E-01   -4.926E-01   -4.831E-01   -4.737E-01   -4.643E-01   -4.548E-01
    -4.454E-01   -4.359E-01   -4.265E-01   -4.171E-01   -4.076E-01   -3.982E-01   -3.888E-01   -3.793E-01   -3.699E-01   -3.605E-01
    -3.511E-01   -3.416E-01   -3.322E-01   -3.228E-01   -3.134E-01   -3.040E-01   -2.945E-01   -2.851E-01   -2.757E-01   -2.663E-01
    -2.569E-01   -2.475E-01   -2.381E-01   -2.287E-01   -2.193E-01   -2.099E-01   -2.005E-01   -1.911E-01
 Ala      Conc. = 1.27E+03
