 LCModel (Version 6.3-1L) Copyright: S.W. Provencher.          Ref.: Magn. Reson. Med. 30:672-679 (1993).                
 Slice#3 Row#12 Col#11  K_02_press_1_raw_act
 36 lines in following concentration table = NCONC+1
    Conc.  %SD /Cr+PCr  Metabolite                                         
   48.178 183% 8.2E-02 Ala                                                 
   93.922 127%   0.160 Asp                                                 
    0.000 999%   0.000 Cr                                                  
  586.721   8%   1.000 PCr                                                 
    0.000 999%   0.000 GABA                                                
   94.491  78%   0.161 Glc                                                 
    0.000 999%   0.000 Gln                                                 
  511.058  37%   0.871 Glu                                                 
  123.017  11%   0.210 GPC                                                 
    0.000 999%   0.000 PCh                                                 
    0.000 999%   0.000 GSH                                                 
  668.630  26%   1.140 Ins                                                 
    5.018 999% 8.6E-03 Lac                                                 
    0.000 999%   0.000 NAA                                                 
  684.411   8%   1.167 NAAG                                                
    0.000 999%   0.000 Scyllo                                              
    0.000 999%   0.000 Tau                                                 
  683.114  11%   1.164 -CrCH2                                              
  123.017  11%   0.210 GPC+PCh                                             
  684.411   8%   1.167 NAA+NAAG                                            
  586.721   8%   1.000 Cr+PCr                                              
  511.058  37%   0.871 Glu+Gln                                             
 1.33E+04  15%  22.711 Lip13a                                              
   71.326 358%   0.122 Lip13b                                              
 4.42E+03  18%   7.528 Lip09                                               
    0.000 999%   0.000 MM09                                                
 3.66E+03  10%   6.232 Lip20                                               
    0.000 999%   0.000 MM20                                                
    0.000 999%   0.000 MM12                                                
 4.12E+03  26%   7.028 MM14                                                
    0.000 999%   0.000 MM17                                                
 1.34E+04  15%  22.832 Lip13a+Lip13b                                       
 1.75E+04   9%  29.860 MM14+Lip13a+Lip13b+MM12                             
 4.42E+03  18%   7.528 MM09+Lip09                                          
 3.66E+03  10%   6.232 MM20+Lip20                                          
   6 lines in following misc. output table
  FWHM = 0.069 ppm    S/N =  11                                            
  Data shift = 0.038 ppm                                                   
  Ph:-169 deg      84.5 deg/ppm                                            
  alphaB,S = 3.2E-01,   5.1E+01                                            
   14 spline knots.   Ns = 8(1)                                            
  (12) 4 infls.   (12) 1 extrs.                                            
  498 points on ppm-axis = NY
      4.000000     3.992357     3.984714     3.977070     3.969427     3.961784     3.954141     3.946497     3.938854     3.931211
      3.923568     3.915925     3.908281     3.900638     3.892995     3.885352     3.877708     3.870065     3.862422     3.854779
      3.847136     3.839492     3.831849     3.824206     3.816563     3.808919     3.801276     3.793633     3.785990     3.778347
      3.770703     3.763060     3.755417     3.747774     3.740130     3.732487     3.724844     3.717201     3.709558     3.701914
      3.694271     3.686628     3.678985     3.671341     3.663698     3.656055     3.648412     3.640769     3.633125     3.625482
      3.617839     3.610196     3.602552     3.594909     3.587266     3.579623     3.571980     3.564336     3.556693     3.549050
      3.541407     3.533763     3.526120     3.518477     3.510834     3.503191     3.495547     3.487904     3.480261     3.472618
      3.464974     3.457331     3.449688     3.442045     3.434402     3.426758     3.419115     3.411472     3.403829     3.396185
      3.388542     3.380899     3.373256     3.365613     3.357969     3.350326     3.342683     3.335040     3.327396     3.319753
      3.312110     3.304467     3.296824     3.289180     3.281537     3.273894     3.266251     3.258607     3.250964     3.243321
      3.235678     3.228034     3.220391     3.212748     3.205105     3.197462     3.189818     3.182175     3.174532     3.166889
      3.159245     3.151602     3.143959     3.136316     3.128673     3.121029     3.113386     3.105743     3.098100     3.090456
      3.082813     3.075170     3.067527     3.059884     3.052240     3.044597     3.036954     3.029311     3.021667     3.014024
      3.006381     2.998738     2.991095     2.983451     2.975808     2.968165     2.960522     2.952878     2.945235     2.937592
      2.929949     2.922306     2.914662     2.907019     2.899376     2.891733     2.884089     2.876446     2.868803     2.861160
      2.853517     2.845873     2.838230     2.830587     2.822944     2.815300     2.807657     2.800014     2.792371     2.784728
      2.777084     2.769441     2.761798     2.754155     2.746511     2.738868     2.731225     2.723582     2.715939     2.708295
      2.700652     2.693009     2.685366     2.677722     2.670079     2.662436     2.654793     2.647150     2.639506     2.631863
      2.624220     2.616577     2.608933     2.601290     2.593647     2.586004     2.578361     2.570717     2.563074     2.555431
      2.547788     2.540144     2.532501     2.524858     2.517215     2.509572     2.501928     2.494285     2.486642     2.478999
      2.471355     2.463712     2.456069     2.448426     2.440783     2.433139     2.425496     2.417853     2.410210     2.402566
      2.394923     2.387280     2.379637     2.371994     2.364350     2.356707     2.349064     2.341421     2.333777     2.326134
      2.318491     2.310848     2.303205     2.295561     2.287918     2.280275     2.272632     2.264988     2.257345     2.249702
      2.242059     2.234416     2.226772     2.219129     2.211486     2.203843     2.196199     2.188556     2.180913     2.173270
      2.165627     2.157983     2.150340     2.142697     2.135054     2.127410     2.119767     2.112124     2.104481     2.096838
      2.089194     2.081551     2.073908     2.066265     2.058621     2.050978     2.043335     2.035692     2.028049     2.020405
      2.012762     2.005119     1.997476     1.989833     1.982190     1.974546     1.966903     1.959260     1.951617     1.943974
      1.936331     1.928688     1.921045     1.913402     1.905759     1.898115     1.890472     1.882829     1.875186     1.867543
      1.859900     1.852257     1.844614     1.836971     1.829327     1.821684     1.814041     1.806398     1.798755     1.791112
      1.783469     1.775826     1.768183     1.760540     1.752896     1.745253     1.737610     1.729967     1.722324     1.714681
      1.707038     1.699395     1.691752     1.684108     1.676465     1.668822     1.661179     1.653536     1.645893     1.638250
      1.630607     1.622964     1.615321     1.607677     1.600034     1.592391     1.584748     1.577105     1.569462     1.561819
      1.554176     1.546533     1.538890     1.531246     1.523603     1.515960     1.508317     1.500674     1.493031     1.485388
      1.477745     1.470102     1.462458     1.454815     1.447172     1.439529     1.431886     1.424243     1.416600     1.408957
      1.401314     1.393671     1.386027     1.378384     1.370741     1.363098     1.355455     1.347812     1.340169     1.332526
      1.324883     1.317240     1.309596     1.301953     1.294310     1.286667     1.279024     1.271381     1.263738     1.256095
      1.248452     1.240808     1.233165     1.225522     1.217879     1.210236     1.202593     1.194950     1.187307     1.179664
      1.172021     1.164377     1.156734     1.149091     1.141448     1.133805     1.126162     1.118519     1.110876     1.103233
      1.095590     1.087946     1.080303     1.072660     1.065017     1.057374     1.049731     1.042088     1.034445     1.026802
      1.019158     1.011515     1.003872     0.996229     0.988586     0.980943     0.973300     0.965657     0.958014     0.950371
      0.942727     0.935084     0.927441     0.919798     0.912155     0.904512     0.896869     0.889226     0.881583     0.873940
      0.866296     0.858653     0.851010     0.843367     0.835724     0.828081     0.820438     0.812795     0.805152     0.797508
      0.789865     0.782222     0.774579     0.766936     0.759293     0.751650     0.744007     0.736364     0.728721     0.721077
      0.713434     0.705791     0.698148     0.690505     0.682862     0.675219     0.667576     0.659933     0.652290     0.644646
      0.637003     0.629360     0.621717     0.614074     0.606431     0.598788     0.591145     0.583502     0.575858     0.568215
      0.560572     0.552929     0.545286     0.537643     0.530000     0.522357     0.514714     0.507071     0.499427     0.491784
      0.484141     0.476498     0.468855     0.461212     0.453569     0.445925     0.438282     0.430639     0.422996     0.415353
      0.407710     0.400067     0.392424     0.384780     0.377137     0.369494     0.361851     0.354208     0.346565     0.338922
      0.331278     0.323635     0.315992     0.308349     0.300706     0.293063     0.285420     0.277777     0.270133     0.262490
      0.254847     0.247204     0.239561     0.231918     0.224275     0.216631     0.208988     0.201345
 NY phased data points follow
   5.67191E-01 -1.76352E+00 -2.51295E+00 -2.10305E+00 -1.32683E-01 -4.62922E-01 -2.17209E+00 -2.58277E+00 -2.81835E+00 -1.86914E+00
  -4.11235E+00 -7.19866E-01 -8.18618E-01  1.48457E+00 -7.53779E-01  1.38114E+00  2.66615E+00 -7.66396E-02  3.05749E+00  4.10899E+00
   5.82727E+00  5.62893E+00  5.54692E+00  2.87184E+00  5.98990E+00  4.06826E+00  3.59181E+00  3.74723E+00  3.22671E+00  4.24722E+00
   5.76056E+00  5.25319E+00  5.10364E+00  2.65026E+00  4.70456E+00  2.49324E+00  4.39801E+00  6.09940E+00  8.49978E+00  6.44187E+00
   5.65005E+00  7.17032E+00  7.47716E+00  7.15044E+00  6.97478E+00  7.70063E+00  6.57173E+00  4.55735E+00  9.27398E+00  1.02934E+01
   6.51082E+00  8.28318E+00  8.43870E+00  9.42480E+00  1.05360E+01  9.42084E+00  1.14843E+01  9.33231E+00  1.43344E+01  1.27702E+01
   1.04309E+01  1.40680E+01  1.24162E+01  1.16293E+01  1.26019E+01  1.12601E+01  1.10171E+01  1.18142E+01  7.09868E+00  8.85522E+00
   7.46092E+00  9.47324E+00  7.66142E+00  9.56389E+00  7.13536E+00  7.94547E+00  9.89407E+00  6.72826E+00  6.87323E+00  7.85713E+00
   8.34595E+00  6.52464E+00  5.50079E+00  7.25631E+00  8.01125E+00  7.67813E+00  4.11653E+00  6.72134E+00  6.82100E+00  4.82602E+00
   3.45088E+00  4.00963E+00  3.93374E+00  4.28581E+00  4.72351E+00  3.51207E+00  1.48699E+00  2.26084E-01 -5.14895E-01  1.76731E+00
   1.52468E+00  5.05192E+00  7.27562E+00  8.78024E+00  1.05668E+01  1.44791E+01  1.35686E+01  1.51912E+01  1.35942E+01  1.50035E+01
   1.39934E+01  1.26738E+01  1.26675E+01  1.28579E+01  9.37272E+00  9.15143E+00  8.10707E+00  6.52910E+00  7.32153E+00  6.99467E+00
   6.18062E+00  4.69433E+00  3.41440E+00  6.37083E+00  7.41730E+00  6.18623E+00  1.16504E+01  1.31196E+01  1.60034E+01  2.03632E+01
   1.96744E+01  2.30362E+01  1.98374E+01  2.07315E+01  1.96700E+01  1.80919E+01  1.83280E+01  1.54987E+01  1.19542E+01  1.28067E+01
   1.31394E+01  1.21449E+01  1.33112E+01  8.78927E+00  9.74844E+00  1.09614E+01  9.14400E+00  9.49046E+00  9.75674E+00  6.51233E+00
   8.14928E+00  5.26109E+00  7.19885E+00  6.66102E+00  6.92714E+00  3.77138E+00  5.87666E+00  5.00296E+00  4.26924E+00  4.01146E+00
   4.63562E+00  2.95478E+00  2.90902E+00  3.55085E+00  3.57934E+00  4.03920E+00  1.30507E+00  2.45556E+00  1.63666E+00  2.84853E+00
   1.12397E-01 -1.11110E+00 -3.18796E+00 -1.83853E+00 -3.71229E+00 -2.86111E+00 -5.05681E+00 -8.53645E+00 -3.46292E+00 -6.50586E+00
  -6.68515E+00 -4.81432E+00 -5.03727E+00 -5.77378E+00 -2.67884E+00 -6.33754E+00 -7.31543E+00 -5.93072E+00 -5.50557E+00 -5.77073E+00
  -6.16546E+00 -8.38223E+00 -4.81739E+00 -8.60949E+00 -7.10976E+00 -9.98949E+00 -7.39017E+00 -8.18629E+00 -7.68641E+00 -7.23384E+00
  -8.00288E+00 -8.42439E+00 -6.52269E+00 -8.97687E+00 -9.46499E+00 -7.46748E+00 -8.39263E+00 -5.60401E+00 -8.88177E+00 -9.51602E+00
  -7.28091E+00 -7.89461E+00 -5.58137E+00 -7.29997E+00 -6.46801E+00 -9.21661E+00 -6.08480E+00 -4.50478E+00 -6.85831E+00 -8.96664E+00
  -9.75382E+00 -8.18352E+00 -7.84239E+00 -1.11079E+01 -8.85549E+00 -1.02889E+01 -9.82774E+00 -1.01212E+01 -7.81331E+00 -9.57892E+00
  -9.74671E+00 -6.43375E+00 -9.17432E+00 -6.95302E+00 -8.07134E+00 -8.43736E+00 -5.46377E+00 -8.18530E+00 -8.74737E+00 -8.70090E+00
  -9.28598E+00 -8.50461E+00 -7.61699E+00 -8.77950E+00 -9.47310E+00 -7.12262E+00 -4.97886E+00 -5.08624E+00 -3.04195E+00 -5.41497E+00
  -3.14664E+00 -6.06499E+00 -2.34498E+00  1.24963E-01  3.45574E+00  4.43817E+00  6.64452E+00  1.21348E+01  9.00438E+00  1.19048E+01
   5.18631E+00  6.67476E+00  2.32255E+00 -4.36180E+00 -7.49691E+00 -1.32999E+01 -1.48566E+01 -1.84525E+01 -2.13666E+01 -2.67271E+01
  -2.29933E+01 -2.47687E+01 -2.60299E+01 -2.48278E+01 -2.27474E+01 -2.37714E+01 -2.24893E+01 -2.30999E+01 -2.40790E+01 -2.68201E+01
  -2.34066E+01 -2.70851E+01 -2.62780E+01 -2.39069E+01 -2.53150E+01 -2.35179E+01 -2.32084E+01 -2.58374E+01 -2.42834E+01 -2.52183E+01
  -2.23213E+01 -2.28490E+01 -2.56905E+01 -2.62961E+01 -2.25666E+01 -2.47714E+01 -2.28763E+01 -2.43925E+01 -2.41394E+01 -2.31257E+01
  -2.35691E+01 -2.19321E+01 -2.28246E+01 -2.28166E+01 -2.12855E+01 -2.41166E+01 -2.02212E+01 -2.11067E+01 -1.96572E+01 -2.03761E+01
  -1.83762E+01 -1.98807E+01 -1.92285E+01 -1.81776E+01 -1.75689E+01 -1.82912E+01 -1.59242E+01 -1.56851E+01 -1.33371E+01 -1.27964E+01
  -1.00668E+01 -6.35382E+00 -5.09999E+00 -6.97863E+00 -4.40072E+00 -3.68733E+00 -3.54200E+00  5.50691E-04  1.76044E+00  1.16380E+00
   4.75423E+00  8.80154E+00  8.91094E+00  1.09644E+01  1.35100E+01  1.70033E+01  1.84804E+01  1.82647E+01  2.01696E+01  2.14900E+01
   1.95011E+01  2.60240E+01  2.35074E+01  2.65025E+01  2.60527E+01  2.71504E+01  2.69829E+01  2.65394E+01  2.96424E+01  2.72021E+01
   3.02362E+01  2.80059E+01  2.77750E+01  2.52158E+01  2.68429E+01  2.65722E+01  2.74520E+01  2.47282E+01  2.63434E+01  2.43057E+01
   2.53110E+01  2.44975E+01  2.51656E+01  2.17627E+01  2.25540E+01  2.09018E+01  2.15931E+01  1.95062E+01  1.99788E+01  1.84580E+01
   1.84636E+01  1.59003E+01  1.82078E+01  1.99992E+01  1.48620E+01  1.89024E+01  1.82519E+01  1.63506E+01  1.66221E+01  1.71126E+01
   1.92967E+01  1.34206E+01  1.60266E+01  1.52266E+01  1.45314E+01  1.60750E+01  1.65838E+01  1.29183E+01  1.06885E+01  1.03473E+01
   1.04839E+01  1.38056E+01  1.20350E+01  8.18411E+00  9.90314E+00  9.28374E+00  7.54340E+00  7.87070E+00  9.86994E+00  9.96391E+00
   9.01151E+00  6.87651E+00  5.87243E+00  6.26055E+00  5.91343E+00  6.59637E+00  3.17067E+00  1.29374E+00  3.04841E+00  3.08824E+00
   4.79809E+00  1.29011E+00  1.63572E+00  2.76765E+00  8.82626E-01  2.02890E+00  1.25090E+00 -1.60768E+00  1.40155E+00 -4.11188E-01
   7.11695E-01 -5.14479E-02  1.11971E+00  1.64652E+00 -8.91379E-01  7.60431E-01 -1.00962E+00  1.62493E+00  2.19750E+00 -1.06783E-01
  -6.98677E-01  2.55323E+00 -1.57881E-01  8.39021E-02  2.61931E+00 -4.14851E-01  1.18919E+00 -1.93855E+00 -1.75683E+00  2.28028E-01
  -5.51899E-01 -2.09311E+00 -9.03652E-01  1.02356E+00 -2.27086E+00 -9.77492E-01 -2.92625E+00 -2.15471E+00 -1.40583E+00 -1.00297E+00
  -5.19275E-01 -2.00433E-01  7.79038E-01 -1.09541E+00 -7.93587E-01 -3.70912E+00 -6.27916E-01 -1.38676E-02 -3.37031E+00 -8.66251E-01
   1.51669E-01 -2.10166E+00 -1.27979E-01  9.18233E-02 -2.56199E+00 -6.66754E-01 -2.16703E+00  1.43716E+00 -1.03774E+00 -1.90568E-02
  -5.88326E-01 -1.64226E+00 -1.07382E+00 -5.26984E-01  8.49319E-01 -2.40622E+00 -3.09093E-01 -2.09917E+00 -2.39010E+00 -7.06216E-01
  -4.25956E+00 -3.42881E+00 -1.54787E+00 -3.64570E+00 -1.27449E+00 -3.62487E+00 -2.86869E+00 -2.72193E+00 -3.48583E+00 -2.34906E+00
  -2.13961E+00  7.97030E-01 -2.88702E+00 -3.21593E+00  1.10476E+00 -2.47487E+00 -2.29031E-01 -1.06072E+00
 NY points of the fit to the data follow
   1.94282E+00  1.55952E+00  1.43565E+00  1.27552E+00  7.47992E-01 -5.39333E-02 -1.05489E+00 -1.80989E+00 -2.04188E+00 -2.23461E+00
  -2.37864E+00 -1.81152E+00 -6.26789E-01  3.95486E-01  9.49169E-01  1.34029E+00  1.93888E+00  2.89862E+00  4.63022E+00  5.68726E+00
   4.50119E+00  3.68726E+00  3.70745E+00  3.86757E+00  3.95123E+00  3.99587E+00  4.00703E+00  4.01591E+00  4.03891E+00  4.16945E+00
   4.39375E+00  4.70124E+00  5.03192E+00  5.34255E+00  5.56494E+00  5.73375E+00  5.95120E+00  6.15395E+00  6.20894E+00  6.11155E+00
   5.89523E+00  5.69558E+00  5.69683E+00  6.04537E+00  6.77007E+00  7.63405E+00  8.47981E+00  9.29869E+00  9.92233E+00  1.01271E+01
   9.96978E+00  9.65778E+00  9.37490E+00  9.05260E+00  8.57565E+00  7.92314E+00  7.23701E+00  6.91952E+00  7.15444E+00  7.67766E+00
   8.11030E+00  8.32394E+00  8.37135E+00  8.30792E+00  8.16278E+00  8.00725E+00  7.90072E+00  7.78533E+00  7.62669E+00  7.53784E+00
   7.54797E+00  7.71759E+00  7.99535E+00  8.26895E+00  8.47498E+00  8.57979E+00  8.59416E+00  8.56870E+00  8.50566E+00  8.42501E+00
   8.26446E+00  8.08298E+00  7.90664E+00  7.66148E+00  7.32460E+00  6.91828E+00  6.48072E+00  6.05142E+00  5.67248E+00  5.41422E+00
   5.30703E+00  5.31832E+00  5.39870E+00  5.51666E+00  5.66885E+00  5.87989E+00  6.06413E+00  6.00991E+00  5.75661E+00  5.61673E+00
   5.85045E+00  6.73059E+00  8.18758E+00  9.78644E+00  1.13867E+01  1.30973E+01  1.45933E+01  1.53057E+01  1.52408E+01  1.48171E+01
   1.42730E+01  1.35416E+01  1.24385E+01  1.04834E+01  7.72811E+00  6.00291E+00  5.55954E+00  5.40497E+00  5.31444E+00  5.22766E+00
   5.04296E+00  4.67109E+00  4.42226E+00  4.66752E+00  5.70244E+00  7.78753E+00  1.05367E+01  1.33478E+01  1.61872E+01  1.89791E+01
   2.09361E+01  2.15832E+01  2.12909E+01  2.06589E+01  1.98337E+01  1.86323E+01  1.66688E+01  1.33394E+01  9.68460E+00  8.16213E+00
   7.91745E+00  7.96497E+00  8.09897E+00  8.26606E+00  8.44107E+00  8.61092E+00  8.76591E+00  8.88796E+00  8.95132E+00  8.94793E+00
   8.87150E+00  8.71686E+00  8.48997E+00  8.20572E+00  7.86484E+00  7.49311E+00  7.12448E+00  6.73887E+00  6.30803E+00  5.81268E+00
   5.23068E+00  4.58833E+00  3.96243E+00  3.39298E+00  2.77256E+00  2.03499E+00  1.24089E+00  4.49917E-01 -2.29743E-01 -7.44390E-01
  -1.22560E+00 -1.68549E+00 -2.10135E+00 -2.48619E+00 -2.87401E+00 -3.29382E+00 -3.74218E+00 -4.14861E+00 -4.48386E+00 -4.81460E+00
  -5.24667E+00 -5.68011E+00 -6.00762E+00 -6.20958E+00 -6.23509E+00 -6.18229E+00 -6.19106E+00 -6.22788E+00 -6.25586E+00 -6.26953E+00
  -6.28801E+00 -6.31939E+00 -6.47332E+00 -6.86048E+00 -7.30379E+00 -7.68880E+00 -7.98917E+00 -8.22155E+00 -8.41772E+00 -8.57166E+00
  -8.69320E+00 -8.77460E+00 -8.76371E+00 -8.73533E+00 -8.76930E+00 -8.88326E+00 -9.08995E+00 -9.38131E+00 -9.74989E+00 -1.00654E+01
  -1.01156E+01 -9.85703E+00 -9.32370E+00 -8.64909E+00 -7.93783E+00 -7.21582E+00 -6.61274E+00 -6.31436E+00 -6.30657E+00 -6.61276E+00
  -7.05845E+00 -7.56243E+00 -8.14012E+00 -8.69714E+00 -9.15655E+00 -9.34698E+00 -9.17035E+00 -8.96068E+00 -8.78589E+00 -8.56833E+00
  -8.24882E+00 -7.97524E+00 -8.01777E+00 -8.32813E+00 -8.61943E+00 -8.83056E+00 -9.00514E+00 -9.14181E+00 -9.28440E+00 -9.31865E+00
  -9.13262E+00 -8.81723E+00 -8.42593E+00 -7.97883E+00 -7.48055E+00 -6.89358E+00 -6.27578E+00 -5.83870E+00 -5.82004E+00 -5.85353E+00
  -5.47461E+00 -4.33955E+00 -2.21681E+00  5.10679E-01  3.15478E+00  5.67991E+00  8.17482E+00  9.78119E+00  9.76857E+00  8.45555E+00
   6.60702E+00  4.43157E+00  1.78696E+00 -1.61254E+00 -6.71167E+00 -1.28177E+01 -1.62749E+01 -1.77252E+01 -1.87785E+01 -1.96709E+01
  -2.04057E+01 -2.09964E+01 -2.14709E+01 -2.18426E+01 -2.21279E+01 -2.24208E+01 -2.26992E+01 -2.29460E+01 -2.31690E+01 -2.33495E+01
  -2.34992E+01 -2.36488E+01 -2.37830E+01 -2.38811E+01 -2.39340E+01 -2.39204E+01 -2.38604E+01 -2.38235E+01 -2.38000E+01 -2.37610E+01
  -2.37157E+01 -2.36724E+01 -2.36284E+01 -2.35550E+01 -2.34442E+01 -2.33327E+01 -2.32110E+01 -2.30713E+01 -2.29158E+01 -2.27443E+01
  -2.25758E+01 -2.24243E+01 -2.22490E+01 -2.20392E+01 -2.17987E+01 -2.15268E+01 -2.12195E+01 -2.08654E+01 -2.04641E+01 -2.00403E+01
  -1.95877E+01 -1.90929E+01 -1.85498E+01 -1.79490E+01 -1.72835E+01 -1.65459E+01 -1.57294E+01 -1.48266E+01 -1.38318E+01 -1.27396E+01
  -1.15319E+01 -1.01922E+01 -8.71857E+00 -7.11444E+00 -5.40697E+00 -3.63046E+00 -1.79294E+00  8.90545E-02  1.97021E+00  3.83513E+00
   5.70726E+00  7.61933E+00  9.57294E+00  1.15222E+01  1.34217E+01  1.52550E+01  1.70383E+01  1.88014E+01  2.04449E+01  2.18862E+01
   2.31423E+01  2.42259E+01  2.51410E+01  2.58619E+01  2.63386E+01  2.66486E+01  2.68989E+01  2.70839E+01  2.72014E+01  2.72589E+01
   2.72678E+01  2.72390E+01  2.71758E+01  2.70735E+01  2.69258E+01  2.67290E+01  2.64812E+01  2.61872E+01  2.58440E+01  2.54475E+01
   2.50057E+01  2.45274E+01  2.40198E+01  2.34853E+01  2.29247E+01  2.23521E+01  2.17766E+01  2.11982E+01  2.06182E+01  2.00389E+01
   1.94635E+01  1.88956E+01  1.83391E+01  1.77981E+01  1.72763E+01  1.67773E+01  1.63038E+01  1.58576E+01  1.54398E+01  1.50503E+01
   1.46885E+01  1.43525E+01  1.40398E+01  1.37473E+01  1.34712E+01  1.32074E+01  1.29516E+01  1.26994E+01  1.24464E+01  1.21884E+01
   1.19217E+01  1.16428E+01  1.13492E+01  1.10385E+01  1.07091E+01  1.03602E+01  9.99151E+00  9.60356E+00  9.19734E+00  8.77438E+00
   8.33664E+00  7.88648E+00  7.42658E+00  6.95981E+00  6.48913E+00  6.01747E+00  5.54771E+00  5.08266E+00  4.62497E+00  4.17706E+00
   3.74105E+00  3.31880E+00  2.91186E+00  2.52156E+00  2.14895E+00  1.79478E+00  1.45952E+00  1.14342E+00  8.46527E-01  5.68759E-01
   3.09865E-01  6.94267E-02 -1.53097E-01 -3.58332E-01 -5.46911E-01 -7.19537E-01 -8.76926E-01 -1.01989E+00 -1.14920E+00 -1.26566E+00
  -1.36999E+00 -1.46292E+00 -1.54517E+00 -1.61750E+00 -1.68058E+00 -1.73508E+00 -1.78156E+00 -1.82063E+00 -1.85285E+00 -1.87881E+00
  -1.89900E+00 -1.91391E+00 -1.92393E+00 -1.92954E+00 -1.93113E+00 -1.92915E+00 -1.92391E+00 -1.91579E+00 -1.90504E+00 -1.89203E+00
  -1.87705E+00 -1.86042E+00 -1.84234E+00 -1.82305E+00 -1.80264E+00 -1.78129E+00 -1.75908E+00 -1.73614E+00 -1.71248E+00 -1.68821E+00
  -1.66336E+00 -1.63805E+00 -1.61230E+00 -1.58618E+00 -1.55966E+00 -1.53282E+00 -1.50563E+00 -1.47822E+00 -1.45051E+00 -1.42258E+00
  -1.39434E+00 -1.36585E+00 -1.33709E+00 -1.30812E+00 -1.27886E+00 -1.24933E+00 -1.21945E+00 -1.18929E+00 -1.15876E+00 -1.12793E+00
  -1.09668E+00 -1.06503E+00 -1.03288E+00 -1.00031E+00 -9.67207E-01 -9.33610E-01 -8.99383E-01 -8.64555E-01 -8.29022E-01 -7.92841E-01
  -7.55893E-01 -7.18197E-01 -6.79608E-01 -6.40164E-01 -5.99751E-01 -5.58420E-01 -5.16027E-01 -4.72588E-01
 NY background values follow
    -1.379E+00   -1.233E+00   -1.086E+00   -9.391E-01   -7.917E-01   -6.440E-01   -4.963E-01   -3.486E-01   -2.009E-01   -5.328E-02
     9.410E-02    2.412E-01    3.879E-01    5.343E-01    6.800E-01    8.252E-01    9.698E-01    1.114E+00    1.256E+00    1.398E+00
     1.540E+00    1.680E+00    1.818E+00    1.956E+00    2.092E+00    2.227E+00    2.361E+00    2.493E+00    2.623E+00    2.751E+00
     2.878E+00    3.003E+00    3.126E+00    3.247E+00    3.366E+00    3.483E+00    3.598E+00    3.710E+00    3.820E+00    3.927E+00
     4.032E+00    4.134E+00    4.233E+00    4.330E+00    4.424E+00    4.514E+00    4.602E+00    4.687E+00    4.769E+00    4.847E+00
     4.923E+00    4.996E+00    5.066E+00    5.133E+00    5.197E+00    5.259E+00    5.317E+00    5.373E+00    5.426E+00    5.476E+00
     5.524E+00    5.569E+00    5.611E+00    5.651E+00    5.688E+00    5.722E+00    5.754E+00    5.783E+00    5.810E+00    5.834E+00
     5.856E+00    5.875E+00    5.892E+00    5.907E+00    5.919E+00    5.928E+00    5.936E+00    5.941E+00    5.944E+00    5.945E+00
     5.943E+00    5.939E+00    5.933E+00    5.925E+00    5.915E+00    5.902E+00    5.888E+00    5.871E+00    5.853E+00    5.832E+00
     5.810E+00    5.785E+00    5.759E+00    5.730E+00    5.700E+00    5.667E+00    5.633E+00    5.596E+00    5.557E+00    5.516E+00
     5.473E+00    5.428E+00    5.381E+00    5.331E+00    5.279E+00    5.225E+00    5.169E+00    5.111E+00    5.050E+00    4.987E+00
     4.921E+00    4.853E+00    4.783E+00    4.710E+00    4.635E+00    4.558E+00    4.478E+00    4.395E+00    4.310E+00    4.223E+00
     4.133E+00    4.040E+00    3.945E+00    3.847E+00    3.746E+00    3.643E+00    3.537E+00    3.429E+00    3.318E+00    3.204E+00
     3.087E+00    2.967E+00    2.845E+00    2.720E+00    2.592E+00    2.461E+00    2.327E+00    2.190E+00    2.051E+00    1.909E+00
     1.764E+00    1.616E+00    1.465E+00    1.312E+00    1.156E+00    9.971E-01    8.359E-01    6.721E-01    5.058E-01    3.369E-01
     1.656E-01   -8.227E-03   -1.844E-01   -3.631E-01   -5.440E-01   -7.273E-01   -9.129E-01   -1.101E+00   -1.291E+00   -1.483E+00
    -1.678E+00   -1.874E+00   -2.073E+00   -2.274E+00   -2.477E+00   -2.682E+00   -2.889E+00   -3.098E+00   -3.308E+00   -3.521E+00
    -3.736E+00   -3.952E+00   -4.170E+00   -4.390E+00   -4.612E+00   -4.835E+00   -5.060E+00   -5.287E+00   -5.516E+00   -5.746E+00
    -5.977E+00   -6.210E+00   -6.445E+00   -6.681E+00   -6.918E+00   -7.157E+00   -7.397E+00   -7.639E+00   -7.881E+00   -8.125E+00
    -8.370E+00   -8.616E+00   -8.863E+00   -9.111E+00   -9.360E+00   -9.610E+00   -9.861E+00   -1.011E+01   -1.036E+01   -1.062E+01
    -1.087E+01   -1.113E+01   -1.138E+01   -1.164E+01   -1.189E+01   -1.215E+01   -1.241E+01   -1.266E+01   -1.292E+01   -1.318E+01
    -1.344E+01   -1.369E+01   -1.395E+01   -1.421E+01   -1.447E+01   -1.473E+01   -1.499E+01   -1.525E+01   -1.550E+01   -1.576E+01
    -1.602E+01   -1.628E+01   -1.653E+01   -1.679E+01   -1.705E+01   -1.730E+01   -1.756E+01   -1.781E+01   -1.807E+01   -1.832E+01
    -1.857E+01   -1.883E+01   -1.908E+01   -1.933E+01   -1.957E+01   -1.982E+01   -2.007E+01   -2.031E+01   -2.055E+01   -2.079E+01
    -2.103E+01   -2.127E+01   -2.150E+01   -2.174E+01   -2.197E+01   -2.219E+01   -2.242E+01   -2.264E+01   -2.286E+01   -2.308E+01
    -2.330E+01   -2.351E+01   -2.372E+01   -2.392E+01   -2.412E+01   -2.432E+01   -2.452E+01   -2.471E+01   -2.490E+01   -2.508E+01
    -2.526E+01   -2.544E+01   -2.561E+01   -2.578E+01   -2.594E+01   -2.610E+01   -2.626E+01   -2.641E+01   -2.656E+01   -2.670E+01
    -2.683E+01   -2.697E+01   -2.709E+01   -2.721E+01   -2.733E+01   -2.744E+01   -2.755E+01   -2.765E+01   -2.775E+01   -2.784E+01
    -2.792E+01   -2.801E+01   -2.808E+01   -2.816E+01   -2.822E+01   -2.829E+01   -2.835E+01   -2.840E+01   -2.845E+01   -2.849E+01
    -2.853E+01   -2.857E+01   -2.860E+01   -2.863E+01   -2.865E+01   -2.867E+01   -2.868E+01   -2.869E+01   -2.870E+01   -2.870E+01
    -2.869E+01   -2.868E+01   -2.867E+01   -2.866E+01   -2.864E+01   -2.861E+01   -2.858E+01   -2.855E+01   -2.851E+01   -2.847E+01
    -2.843E+01   -2.838E+01   -2.833E+01   -2.827E+01   -2.821E+01   -2.815E+01   -2.808E+01   -2.801E+01   -2.794E+01   -2.786E+01
    -2.778E+01   -2.769E+01   -2.760E+01   -2.751E+01   -2.741E+01   -2.731E+01   -2.721E+01   -2.710E+01   -2.700E+01   -2.688E+01
    -2.677E+01   -2.665E+01   -2.653E+01   -2.641E+01   -2.628E+01   -2.615E+01   -2.602E+01   -2.588E+01   -2.575E+01   -2.561E+01
    -2.546E+01   -2.532E+01   -2.517E+01   -2.502E+01   -2.487E+01   -2.471E+01   -2.456E+01   -2.440E+01   -2.424E+01   -2.408E+01
    -2.391E+01   -2.374E+01   -2.358E+01   -2.341E+01   -2.323E+01   -2.306E+01   -2.288E+01   -2.271E+01   -2.253E+01   -2.235E+01
    -2.217E+01   -2.198E+01   -2.180E+01   -2.161E+01   -2.143E+01   -2.124E+01   -2.105E+01   -2.086E+01   -2.067E+01   -2.048E+01
    -2.029E+01   -2.009E+01   -1.990E+01   -1.970E+01   -1.950E+01   -1.931E+01   -1.911E+01   -1.891E+01   -1.871E+01   -1.851E+01
    -1.831E+01   -1.811E+01   -1.791E+01   -1.771E+01   -1.751E+01   -1.731E+01   -1.711E+01   -1.690E+01   -1.670E+01   -1.650E+01
    -1.630E+01   -1.609E+01   -1.589E+01   -1.569E+01   -1.549E+01   -1.529E+01   -1.509E+01   -1.488E+01   -1.468E+01   -1.448E+01
    -1.428E+01   -1.408E+01   -1.389E+01   -1.369E+01   -1.349E+01   -1.329E+01   -1.310E+01   -1.290E+01   -1.271E+01   -1.251E+01
    -1.232E+01   -1.213E+01   -1.194E+01   -1.175E+01   -1.156E+01   -1.137E+01   -1.118E+01   -1.100E+01   -1.081E+01   -1.063E+01
    -1.045E+01   -1.027E+01   -1.009E+01   -9.914E+00   -9.738E+00   -9.564E+00   -9.391E+00   -9.220E+00   -9.050E+00   -8.882E+00
    -8.716E+00   -8.552E+00   -8.390E+00   -8.229E+00   -8.070E+00   -7.913E+00   -7.759E+00   -7.606E+00   -7.455E+00   -7.306E+00
    -7.160E+00   -7.016E+00   -6.874E+00   -6.734E+00   -6.596E+00   -6.461E+00   -6.329E+00   -6.198E+00   -6.070E+00   -5.945E+00
    -5.822E+00   -5.702E+00   -5.585E+00   -5.470E+00   -5.358E+00   -5.248E+00   -5.141E+00   -5.036E+00   -4.934E+00   -4.833E+00
    -4.735E+00   -4.639E+00   -4.545E+00   -4.453E+00   -4.363E+00   -4.275E+00   -4.188E+00   -4.103E+00   -4.020E+00   -3.938E+00
    -3.858E+00   -3.779E+00   -3.702E+00   -3.625E+00   -3.550E+00   -3.476E+00   -3.403E+00   -3.331E+00   -3.260E+00   -3.189E+00
    -3.120E+00   -3.051E+00   -2.982E+00   -2.915E+00   -2.847E+00   -2.780E+00   -2.714E+00   -2.647E+00   -2.581E+00   -2.515E+00
    -2.449E+00   -2.383E+00   -2.317E+00   -2.251E+00   -2.184E+00   -2.117E+00   -2.050E+00   -1.982E+00
 Ala      Conc. = 4.82E+01
