 LCModel (Version 6.3-1L) Copyright: S.W. Provencher.          Ref.: Magn. Reson. Med. 30:672-679 (1993).                
 Slice#2 Row#7 Col#10  K_02_press_1_raw_act
 36 lines in following concentration table = NCONC+1
    Conc.  %SD /Cr+PCr  Metabolite                                         
    0.000 999%   0.000 Ala                                                 
    0.000 999%   0.000 Asp                                                 
  604.243  34%   0.334 Cr                                                  
 1.20E+03  19%   0.666 PCr                                                 
    0.000 999%   0.000 GABA                                                
    0.000 999%   0.000 Glc                                                 
  486.690  41%   0.269 Gln                                                 
 1.93E+03  12%   1.068 Glu                                                 
  755.185   4%   0.418 GPC                                                 
    0.000 999%   0.000 PCh                                                 
  396.548  19%   0.219 GSH                                                 
 1.23E+03  21%   0.683 Ins                                                 
    0.000 999%   0.000 Lac                                                 
 2.86E+03   4%   1.583 NAA                                                 
  971.066  10%   0.537 NAAG                                                
   26.342 115% 1.5E-02 Scyllo                                              
    0.000 999%   0.000 Tau                                                 
  369.901  36%   0.205 -CrCH2                                              
  755.185   4%   0.418 GPC+PCh                                             
 3.83E+03   3%   2.120 NAA+NAAG                                            
 1.81E+03   4%   1.000 Cr+PCr                                              
 2.42E+03  13%   1.337 Glu+Gln                                             
    0.000 999%   0.000 Lip13a                                              
  315.569  97%   0.175 Lip13b                                              
   16.435 949% 9.1E-03 Lip09                                               
 2.17E+03  16%   1.200 MM09                                                
   74.227 140% 4.1E-02 Lip20                                               
 4.67E+03  12%   2.583 MM20                                                
  623.256  36%   0.345 MM12                                                
 1.89E+03  26%   1.045 MM14                                                
 1.21E+03  30%   0.668 MM17                                                
  315.569  97%   0.175 Lip13a+Lip13b                                       
 2.83E+03  20%   1.565 MM14+Lip13a+Lip13b+MM12                             
 2.19E+03  15%   1.209 MM09+Lip09                                          
 4.74E+03  12%   2.624 MM20+Lip20                                          
   6 lines in following misc. output table
  FWHM = 0.031 ppm    S/N =  16                                            
  Data shift = 0.008 ppm                                                   
  Ph: -29 deg      -5.1 deg/ppm                                            
  alphaB,S = 8.1E-01,   1.4E+01                                            
   14 spline knots.   Ns = 5(1)                                            
  ( 5) 2 infls.   ( 1) 1 extrs.                                            
  498 points on ppm-axis = NY
      4.000000     3.992357     3.984714     3.977070     3.969427     3.961784     3.954141     3.946497     3.938854     3.931211
      3.923568     3.915925     3.908281     3.900638     3.892995     3.885352     3.877708     3.870065     3.862422     3.854779
      3.847136     3.839492     3.831849     3.824206     3.816563     3.808919     3.801276     3.793633     3.785990     3.778347
      3.770703     3.763060     3.755417     3.747774     3.740130     3.732487     3.724844     3.717201     3.709558     3.701914
      3.694271     3.686628     3.678985     3.671341     3.663698     3.656055     3.648412     3.640769     3.633125     3.625482
      3.617839     3.610196     3.602552     3.594909     3.587266     3.579623     3.571980     3.564336     3.556693     3.549050
      3.541407     3.533763     3.526120     3.518477     3.510834     3.503191     3.495547     3.487904     3.480261     3.472618
      3.464974     3.457331     3.449688     3.442045     3.434402     3.426758     3.419115     3.411472     3.403829     3.396185
      3.388542     3.380899     3.373256     3.365613     3.357969     3.350326     3.342683     3.335040     3.327396     3.319753
      3.312110     3.304467     3.296824     3.289180     3.281537     3.273894     3.266251     3.258607     3.250964     3.243321
      3.235678     3.228034     3.220391     3.212748     3.205105     3.197462     3.189818     3.182175     3.174532     3.166889
      3.159245     3.151602     3.143959     3.136316     3.128673     3.121029     3.113386     3.105743     3.098100     3.090456
      3.082813     3.075170     3.067527     3.059884     3.052240     3.044597     3.036954     3.029311     3.021667     3.014024
      3.006381     2.998738     2.991095     2.983451     2.975808     2.968165     2.960522     2.952878     2.945235     2.937592
      2.929949     2.922306     2.914662     2.907019     2.899376     2.891733     2.884089     2.876446     2.868803     2.861160
      2.853517     2.845873     2.838230     2.830587     2.822944     2.815300     2.807657     2.800014     2.792371     2.784728
      2.777084     2.769441     2.761798     2.754155     2.746511     2.738868     2.731225     2.723582     2.715939     2.708295
      2.700652     2.693009     2.685366     2.677722     2.670079     2.662436     2.654793     2.647150     2.639506     2.631863
      2.624220     2.616577     2.608933     2.601290     2.593647     2.586004     2.578361     2.570717     2.563074     2.555431
      2.547788     2.540144     2.532501     2.524858     2.517215     2.509572     2.501928     2.494285     2.486642     2.478999
      2.471355     2.463712     2.456069     2.448426     2.440783     2.433139     2.425496     2.417853     2.410210     2.402566
      2.394923     2.387280     2.379637     2.371994     2.364350     2.356707     2.349064     2.341421     2.333777     2.326134
      2.318491     2.310848     2.303205     2.295561     2.287918     2.280275     2.272632     2.264988     2.257345     2.249702
      2.242059     2.234416     2.226772     2.219129     2.211486     2.203843     2.196199     2.188556     2.180913     2.173270
      2.165627     2.157983     2.150340     2.142697     2.135054     2.127410     2.119767     2.112124     2.104481     2.096838
      2.089194     2.081551     2.073908     2.066265     2.058621     2.050978     2.043335     2.035692     2.028049     2.020405
      2.012762     2.005119     1.997476     1.989833     1.982190     1.974546     1.966903     1.959260     1.951617     1.943974
      1.936331     1.928688     1.921045     1.913402     1.905759     1.898115     1.890472     1.882829     1.875186     1.867543
      1.859900     1.852257     1.844614     1.836971     1.829327     1.821684     1.814041     1.806398     1.798755     1.791112
      1.783469     1.775826     1.768183     1.760540     1.752896     1.745253     1.737610     1.729967     1.722324     1.714681
      1.707038     1.699395     1.691752     1.684108     1.676465     1.668822     1.661179     1.653536     1.645893     1.638250
      1.630607     1.622964     1.615321     1.607677     1.600034     1.592391     1.584748     1.577105     1.569462     1.561819
      1.554176     1.546533     1.538890     1.531246     1.523603     1.515960     1.508317     1.500674     1.493031     1.485388
      1.477745     1.470102     1.462458     1.454815     1.447172     1.439529     1.431886     1.424243     1.416600     1.408957
      1.401314     1.393671     1.386027     1.378384     1.370741     1.363098     1.355455     1.347812     1.340169     1.332526
      1.324883     1.317240     1.309596     1.301953     1.294310     1.286667     1.279024     1.271381     1.263738     1.256095
      1.248452     1.240808     1.233165     1.225522     1.217879     1.210236     1.202593     1.194950     1.187307     1.179664
      1.172021     1.164377     1.156734     1.149091     1.141448     1.133805     1.126162     1.118519     1.110876     1.103233
      1.095590     1.087946     1.080303     1.072660     1.065017     1.057374     1.049731     1.042088     1.034445     1.026802
      1.019158     1.011515     1.003872     0.996229     0.988586     0.980943     0.973300     0.965657     0.958014     0.950371
      0.942727     0.935084     0.927441     0.919798     0.912155     0.904512     0.896869     0.889226     0.881583     0.873940
      0.866296     0.858653     0.851010     0.843367     0.835724     0.828081     0.820438     0.812795     0.805152     0.797508
      0.789865     0.782222     0.774579     0.766936     0.759293     0.751650     0.744007     0.736364     0.728721     0.721077
      0.713434     0.705791     0.698148     0.690505     0.682862     0.675219     0.667576     0.659933     0.652290     0.644646
      0.637003     0.629360     0.621717     0.614074     0.606431     0.598788     0.591145     0.583502     0.575858     0.568215
      0.560572     0.552929     0.545286     0.537643     0.530000     0.522357     0.514714     0.507071     0.499427     0.491784
      0.484141     0.476498     0.468855     0.461212     0.453569     0.445925     0.438282     0.430639     0.422996     0.415353
      0.407710     0.400067     0.392424     0.384780     0.377137     0.369494     0.361851     0.354208     0.346565     0.338922
      0.331278     0.323635     0.315992     0.308349     0.300706     0.293063     0.285420     0.277777     0.270133     0.262490
      0.254847     0.247204     0.239561     0.231918     0.224275     0.216631     0.208988     0.201345
 NY phased data points follow
   7.14261E+00  8.19668E+00  8.87199E+00  8.49116E+00  1.41878E+01  1.65040E+01  2.48668E+01  2.86035E+01  3.90716E+01  4.91636E+01
   5.33509E+01  5.24078E+01  4.41521E+01  3.36430E+01  1.71324E+01  1.10676E+01  1.04115E+01  1.18356E+01  1.36570E+01  1.12809E+01
   1.56095E+01  1.01805E+01  1.00011E+01  1.70875E+01  1.34843E+01  1.77414E+01  1.44540E+01  1.27867E+01  1.55892E+01  2.00920E+01
   1.57108E+01  2.13779E+01  1.73793E+01  1.67693E+01  1.18607E+01  1.17726E+01  1.21756E+01  1.17445E+01  1.18670E+01  1.40744E+01
   1.52148E+01  1.42797E+01  1.68656E+01  1.42776E+01  1.92550E+01  2.74290E+01  3.37964E+01  3.10117E+01  2.66963E+01  2.90781E+01
   2.06660E+01  1.17941E+01  1.43069E+01  1.60158E+01  1.39398E+01  1.44121E+01  1.86074E+01  1.87879E+01  1.18489E+01  1.55913E+01
   7.71922E+00  1.38750E+00  5.65291E+00  1.14167E-01  2.15782E+00  1.35256E+00 -6.81306E-01  4.73577E-01  4.54352E-01 -1.87029E+00
   3.25329E+00  9.56358E-01 -6.21619E-01  4.43541E+00  2.87197E+00  2.99781E+00  5.38170E+00  3.16978E+00  5.70794E+00  2.40844E+00
   4.88894E+00  3.31390E+00  3.65039E+00  3.67452E+00  3.93986E+00  3.52875E+00  2.02855E+00  4.85775E+00  5.98126E+00  6.77256E+00
   9.34943E+00  9.06474E+00  1.05676E+01  1.09518E+01  1.32663E+01  9.38735E+00  1.63884E+01  1.60416E+01  1.86170E+01  3.31091E+01
   5.37131E+01  8.09645E+01  9.35572E+01  9.52260E+01  8.47207E+01  5.75364E+01  4.35709E+01  2.66008E+01  1.49293E+01  1.74633E+01
   1.65988E+01  1.26009E+01  1.24733E+01  6.90076E+00  4.55042E+00  8.01815E+00  9.76342E+00  4.71979E+00  7.79808E+00  1.22283E+01
   1.46048E+01  1.28456E+01  1.43015E+01  2.21661E+01  3.97781E+01  6.39066E+01  8.68020E+01  9.03419E+01  7.93345E+01  5.74164E+01
   4.34184E+01  3.39054E+01  1.72558E+01  1.64720E+01  1.59167E+01  1.14624E+01  1.39660E+01  7.20432E+00  7.44353E+00  1.27644E+01
   1.39561E+01  1.25777E+01  5.06590E+00  6.41597E+00  1.03432E+01  5.45982E+00  1.04704E+01  4.97258E+00  1.11233E+01  7.57712E+00
   4.14310E+00  5.15833E+00  7.78363E+00  7.70527E+00  8.18483E+00  7.79991E+00  4.08334E+00  4.35769E+00  1.25447E+01  6.30806E+00
   5.90477E+00  2.62433E-01 -7.72154E-01  1.24070E+00  6.10260E+00  9.67635E+00  5.45046E+00 -3.40410E+00 -7.58339E+00 -7.09274E+00
  -1.16084E+01 -1.09078E+01 -9.41928E+00 -1.71008E+01 -1.71249E+01 -2.23550E+01 -1.84689E+01 -1.20348E+01 -1.14955E+01 -6.59363E+00
  -7.54368E+00 -5.67895E+00 -1.14846E+01 -8.27678E+00 -1.32157E+01 -9.91025E+00 -1.19689E+01 -1.32727E+01 -7.24206E+00  7.00195E+00
   8.00059E+00  4.88829E+00  7.05123E+00  6.05289E+00  7.84394E+00  5.85845E+00  7.66859E-01 -3.53244E+00 -1.17162E+01 -4.67657E+00
  -2.78652E-01 -1.05179E+00  1.16601E+01  9.89899E+00  1.06230E+01  6.91650E+00  2.83282E+00  2.70419E+00  4.17162E+00 -2.63729E+00
  -1.32473E+00  1.93440E+00  6.35126E+00  1.22585E+01  1.70550E+01  3.03574E+01  2.72331E+01  1.83835E+01  1.69119E+01  1.08541E+01
  -1.43813E+00 -8.09220E+00  1.08245E+00 -2.98282E+00  6.06129E+00  1.63968E+01  1.79226E+01  2.33081E+01  2.31304E+01  2.46707E+01
   1.83565E+01  1.79295E+01  1.79555E+01  1.58963E+01  1.47995E+01  1.22592E+01  1.41308E+01  1.94932E+01  1.84487E+01  1.77210E+01
   6.67630E+00  1.18458E+00  3.24049E+00  6.17210E+00  1.30417E+01  1.90380E+01  1.91538E+01  2.36895E+01  2.41236E+01  2.97638E+01
   3.07298E+01  2.81649E+01  3.73612E+01  5.57341E+01  7.48174E+01  7.85117E+01  7.19771E+01  8.32865E+01  1.16759E+02  1.57849E+02
   1.65847E+02  1.48134E+02  1.10368E+02  7.08235E+01  4.87241E+01  2.94459E+01  2.73880E+01  1.84483E+01  1.89754E+01  2.12309E+01
   1.46091E+01  1.50307E+01  1.82497E+01  1.57524E+01  1.92293E+01  1.32687E+01  1.74868E+01  1.54060E+01  6.65416E+00  8.65515E+00
   6.13472E+00  4.31258E+00  1.13025E+01  3.57141E+00  4.63928E+00  5.01834E+00  1.01846E+01  9.94707E+00  1.56605E+01  1.42767E+01
   1.47333E+01  2.01206E+01  1.77424E+01  1.70784E+01  1.98377E+01  9.32605E+00  1.29154E+01  7.95247E+00  5.37644E+00  6.09847E+00
   7.03632E+00  5.85695E+00  4.81299E+00  5.81476E+00  7.30322E+00  1.35374E+01  1.79555E+01  1.28355E+01  1.40241E+01  1.69736E+01
   2.19547E+01  1.66822E+01  2.35989E+01  1.70041E+01  1.77726E+01  1.46120E+01  1.15024E+01  1.71278E+01  1.23052E+01  1.75740E+01
   1.16581E+01  1.39670E+01  1.35498E+01  1.34529E+01  1.29340E+01  1.34356E+01  1.43702E+01  1.89804E+01  1.84733E+01  1.55060E+01
   1.58045E+01  1.49680E+01  1.22665E+01  1.68661E+01  1.62376E+01  2.05049E+01  1.53406E+01  1.27107E+01  1.06745E+01  1.02619E+01
   1.56594E+01  1.45125E+01  1.00214E+01  1.82772E+01  2.05587E+01  1.73154E+01  1.29072E+01  1.78855E+01  1.62841E+01  1.63347E+01
   1.52849E+01  2.22235E+01  1.54943E+01  1.76697E+01  1.43349E+01  1.12881E+01  1.50050E+01  8.42518E+00  1.47783E+01  1.09303E+01
   1.22064E+01  1.25715E+01  1.54002E+01  1.74236E+01  1.53488E+01  1.53193E+01  1.37207E+01  1.06016E+01  9.13588E+00  8.57552E+00
   9.78351E+00  1.19244E+01  7.41168E+00  1.47403E+01  1.00050E+01  1.30481E+01  8.95681E+00  9.15341E+00  1.07125E+01  8.23510E+00
   6.92721E+00  9.24212E+00  1.20578E+01  5.93820E+00  8.47258E+00  1.29057E+01  1.17890E+01  1.51432E+01  1.46358E+01  1.72824E+01
   1.56074E+01  1.30002E+01  1.97862E+01  2.01258E+01  1.72803E+01  1.73637E+01  1.74566E+01  1.88627E+01  1.90539E+01  1.65724E+01
   2.07384E+01  2.14132E+01  1.87384E+01  1.72240E+01  1.77790E+01  2.17871E+01  2.11943E+01  2.15268E+01  2.29809E+01  2.19511E+01
   1.83726E+01  2.09335E+01  1.97479E+01  1.98561E+01  1.34402E+01  1.74122E+01  1.57713E+01  1.83241E+01  1.24677E+01  1.69691E+01
   1.55321E+01  1.10421E+01  9.56724E+00  9.39301E+00  9.89230E+00  9.87397E+00  1.49223E+01  1.13282E+01  7.32561E+00  1.30197E+01
   1.23158E+01  1.20821E+01  1.08902E+01  1.17904E+01  9.51610E+00  7.21995E+00  1.00929E+01  1.26745E+01  1.05709E+01  5.10105E+00
   6.23958E+00  8.25821E+00  7.63539E+00  8.69716E+00  9.50374E+00  1.11961E+01  3.71253E+00  4.87431E+00  8.11402E+00  7.29732E+00
   1.00993E+01  9.54420E+00  1.06059E+01  9.39757E+00  1.04637E+01  8.37809E+00  9.19419E+00  1.08322E+01  1.17649E+01  7.69953E+00
   7.03154E+00  9.89980E+00  1.74191E+00  7.62766E+00  3.27056E+00  5.80525E+00  1.11523E+01  1.12361E+01  1.00999E+01  7.16233E+00
   9.42982E+00  9.88459E+00  5.40966E+00  9.35475E+00  5.97583E+00  7.99402E+00  6.82610E+00  6.92899E+00  1.38070E+01  7.68300E+00
   8.82429E+00  1.14865E+01  7.46429E+00  5.73983E+00  6.57141E+00  3.05460E+00  1.04010E+01  8.30874E+00  8.46165E+00  8.25267E+00
   1.87019E+00  4.45574E+00  2.71529E+00  8.53777E+00  8.56236E+00  2.85893E+00  1.11738E+01  6.41347E+00
 NY points of the fit to the data follow
   9.00100E+00  9.04268E+00  9.41305E+00  1.02497E+01  1.19340E+01  1.51993E+01  1.99862E+01  2.91845E+01  4.11095E+01  5.09020E+01
   5.41042E+01  4.94719E+01  4.04048E+01  3.14046E+01  2.40019E+01  2.00595E+01  1.71935E+01  1.55883E+01  1.42513E+01  1.33114E+01
   1.27723E+01  1.22588E+01  1.18068E+01  1.11684E+01  1.07937E+01  1.07452E+01  1.02237E+01  1.16025E+01  1.56596E+01  1.97401E+01
   2.28184E+01  2.39910E+01  2.38484E+01  2.23086E+01  1.87307E+01  1.52460E+01  1.19042E+01  9.40138E+00  8.71569E+00  9.03407E+00
   1.04087E+01  1.21477E+01  1.35731E+01  1.49827E+01  1.74316E+01  2.11761E+01  2.40638E+01  2.40726E+01  2.15500E+01  1.78094E+01
   1.42130E+01  1.14602E+01  9.76702E+00  9.05888E+00  8.94245E+00  9.10874E+00  9.65845E+00  1.07653E+01  1.19980E+01  1.27792E+01
   1.25619E+01  1.12817E+01  9.54524E+00  7.82080E+00  6.77659E+00  6.53665E+00  6.90344E+00  7.64222E+00  8.30136E+00  9.03787E+00
   9.72039E+00  9.94212E+00  9.72330E+00  9.12999E+00  8.51661E+00  8.03628E+00  7.67751E+00  7.51434E+00  7.37586E+00  7.26906E+00
   7.17822E+00  7.11272E+00  7.04036E+00  6.97289E+00  6.79922E+00  6.06514E+00  4.77172E+00  3.53967E+00  2.94449E+00  3.15640E+00
   3.91708E+00  5.01959E+00  6.10231E+00  6.96239E+00  7.58840E+00  7.84257E+00  8.08002E+00  1.00040E+01  1.64445E+01  2.77268E+01
   5.06703E+01  8.14506E+01  1.00606E+02  9.90990E+01  8.15514E+01  5.80399E+01  3.86678E+01  2.40191E+01  1.63693E+01  1.22445E+01
   9.48399E+00  8.41400E+00  7.93011E+00  7.66727E+00  7.51320E+00  7.42266E+00  7.38775E+00  7.36832E+00  7.38518E+00  7.55322E+00
   8.05204E+00  9.50620E+00  1.43129E+01  2.24703E+01  3.80769E+01  6.48806E+01  8.71011E+01  9.12158E+01  7.91625E+01  5.89516E+01
   4.09692E+01  2.80859E+01  1.98582E+01  1.56076E+01  1.10466E+01  8.05048E+00  6.32949E+00  5.93616E+00  6.50492E+00  7.73759E+00
   8.86115E+00  9.31530E+00  9.13844E+00  8.49354E+00  7.70841E+00  7.05149E+00  6.49917E+00  6.15525E+00  5.78697E+00  5.35747E+00
   4.87108E+00  4.19271E+00  3.45729E+00  3.05875E+00  3.16539E+00  3.68769E+00  4.19983E+00  4.22940E+00  3.32298E+00  1.32425E+00
  -4.08684E-01 -9.65943E-01 -1.10986E-01  1.63999E+00  2.39944E+00  1.66770E+00  6.60781E-02 -1.80378E+00 -2.77935E+00 -2.91961E+00
  -2.62075E+00 -2.44926E+00 -3.15622E+00 -4.41370E+00 -6.06792E+00 -6.86655E+00 -5.97780E+00 -4.40558E+00 -3.36979E+00 -3.81538E+00
  -4.87358E+00 -4.75847E+00 -4.03169E+00 -2.97189E+00 -2.55374E+00 -2.80096E+00 -1.99225E+00  3.74666E-01  3.67059E+00  6.87377E+00
   8.69515E+00  8.68278E+00  7.44798E+00  5.50450E+00  4.17876E+00  3.29895E+00  2.73174E+00  2.92540E+00  3.80183E+00  5.18946E+00
   6.75447E+00  8.47338E+00  1.06120E+01  1.18045E+01  1.16095E+01  9.34578E+00  5.69950E+00  1.58299E+00 -2.36097E+00 -4.16285E+00
  -4.05583E+00 -2.56800E+00  1.07341E+00  6.57195E+00  1.40364E+01  1.93298E+01  1.97401E+01  1.59730E+01  9.57664E+00  2.61532E+00
  -4.12309E+00 -9.42185E+00 -9.71684E+00 -5.42143E+00  1.40393E+00  7.94455E+00  1.26106E+01  1.51779E+01  1.57231E+01  1.45916E+01
   1.30472E+01  1.21573E+01  1.25576E+01  1.37696E+01  1.52422E+01  1.69377E+01  1.82425E+01  1.85313E+01  1.75783E+01  1.56729E+01
   1.35064E+01  1.19386E+01  1.20866E+01  1.43875E+01  1.76395E+01  2.05846E+01  2.24982E+01  2.34527E+01  2.34869E+01  2.33659E+01
   2.50596E+01  2.94375E+01  3.83176E+01  5.40804E+01  6.82972E+01  7.61241E+01  8.03311E+01  8.71468E+01  1.19128E+02  1.55964E+02
   1.65505E+02  1.47315E+02  1.11206E+02  7.59322E+01  5.10861E+01  3.25672E+01  2.63824E+01  2.02738E+01  1.73892E+01  1.60842E+01
   1.53049E+01  1.47223E+01  1.45538E+01  1.44307E+01  1.40175E+01  1.32966E+01  1.25219E+01  1.18542E+01  1.13067E+01  1.08341E+01
   1.05962E+01  1.05045E+01  1.04367E+01  1.03288E+01  1.01295E+01  9.86862E+00  9.60752E+00  9.33190E+00  9.16219E+00  9.17365E+00
   9.37631E+00  9.66367E+00  9.94765E+00  1.01671E+01  1.03560E+01  1.05017E+01  1.06116E+01  1.07586E+01  1.09933E+01  1.13223E+01
   1.17221E+01  1.21450E+01  1.25648E+01  1.29609E+01  1.33120E+01  1.36306E+01  1.39064E+01  1.41432E+01  1.43414E+01  1.44988E+01
   1.46142E+01  1.46857E+01  1.47185E+01  1.47174E+01  1.46913E+01  1.46453E+01  1.45881E+01  1.45266E+01  1.44710E+01  1.44271E+01
   1.44019E+01  1.43972E+01  1.44176E+01  1.44636E+01  1.45380E+01  1.46371E+01  1.47584E+01  1.48947E+01  1.50423E+01  1.51942E+01
   1.53459E+01  1.54887E+01  1.56165E+01  1.57215E+01  1.58010E+01  1.58503E+01  1.58689E+01  1.58535E+01  1.58058E+01  1.57268E+01
   1.56237E+01  1.55017E+01  1.53703E+01  1.52363E+01  1.51106E+01  1.50020E+01  1.49216E+01  1.48742E+01  1.48632E+01  1.48841E+01
   1.49308E+01  1.49897E+01  1.50466E+01  1.50813E+01  1.50767E+01  1.50158E+01  1.48913E+01  1.46999E+01  1.44484E+01  1.41459E+01
   1.38088E+01  1.34525E+01  1.30962E+01  1.27532E+01  1.24359E+01  1.21485E+01  1.18949E+01  1.16731E+01  1.14832E+01  1.13209E+01
   1.11842E+01  1.10682E+01  1.09724E+01  1.08949E+01  1.08382E+01  1.08020E+01  1.07891E+01  1.07999E+01  1.08387E+01  1.09074E+01
   1.10114E+01  1.11520E+01  1.13333E+01  1.15564E+01  1.18257E+01  1.21426E+01  1.25104E+01  1.29279E+01  1.33962E+01  1.39121E+01
   1.44751E+01  1.50798E+01  1.57216E+01  1.63905E+01  1.70780E+01  1.77714E+01  1.84598E+01  1.91278E+01  1.97616E+01  2.03440E+01
   2.08616E+01  2.12994E+01  2.16470E+01  2.18928E+01  2.20305E+01  2.20537E+01  2.19629E+01  2.17594E+01  2.14504E+01  2.10425E+01
   2.05475E+01  1.99766E+01  1.93456E+01  1.86684E+01  1.79614E+01  1.72372E+01  1.65102E+01  1.57909E+01  1.50917E+01  1.44198E+01
   1.37832E+01  1.31848E+01  1.26288E+01  1.21156E+01  1.16473E+01  1.12217E+01  1.08384E+01  1.04931E+01  1.01846E+01  9.90900E+00
   9.66500E+00  9.44814E+00  9.25661E+00  9.08597E+00  8.93532E+00  8.80138E+00  8.68374E+00  8.57887E+00  8.48620E+00  8.40276E+00
   8.32907E+00  8.26298E+00  8.20498E+00  8.15244E+00  8.10574E+00  8.06292E+00  8.02526E+00  7.99109E+00  7.96120E+00  7.93342E+00
   7.90867E+00  7.88552E+00  7.86551E+00  7.84705E+00  7.83104E+00  7.81558E+00  7.80197E+00  7.78903E+00  7.77829E+00  7.76813E+00
   7.75947E+00  7.75064E+00  7.74318E+00  7.73600E+00  7.73054E+00  7.72507E+00  7.72058E+00  7.71563E+00  7.71187E+00  7.70820E+00
   7.70588E+00  7.70317E+00  7.70117E+00  7.69866E+00  7.69736E+00  7.69601E+00  7.69574E+00  7.69481E+00  7.69451E+00  7.69376E+00
   7.69422E+00  7.69450E+00  7.69563E+00  7.69598E+00  7.69701E+00  7.69772E+00  7.69965E+00  7.70127E+00  7.70356E+00  7.70508E+00
   7.70743E+00  7.70959E+00  7.71294E+00  7.71585E+00  7.71939E+00  7.72227E+00  7.72620E+00  7.73009E+00
 NY background values follow
     6.727E+00    6.710E+00    6.693E+00    6.676E+00    6.659E+00    6.642E+00    6.625E+00    6.608E+00    6.590E+00    6.573E+00
     6.556E+00    6.539E+00    6.521E+00    6.504E+00    6.486E+00    6.469E+00    6.451E+00    6.433E+00    6.416E+00    6.398E+00
     6.380E+00    6.362E+00    6.344E+00    6.326E+00    6.307E+00    6.289E+00    6.271E+00    6.252E+00    6.234E+00    6.215E+00
     6.197E+00    6.178E+00    6.159E+00    6.140E+00    6.121E+00    6.101E+00    6.082E+00    6.063E+00    6.043E+00    6.023E+00
     6.004E+00    5.984E+00    5.964E+00    5.944E+00    5.923E+00    5.903E+00    5.883E+00    5.862E+00    5.841E+00    5.820E+00
     5.799E+00    5.778E+00    5.757E+00    5.735E+00    5.714E+00    5.692E+00    5.670E+00    5.648E+00    5.626E+00    5.604E+00
     5.582E+00    5.559E+00    5.537E+00    5.514E+00    5.491E+00    5.468E+00    5.445E+00    5.422E+00    5.398E+00    5.374E+00
     5.351E+00    5.327E+00    5.303E+00    5.279E+00    5.254E+00    5.230E+00    5.205E+00    5.181E+00    5.156E+00    5.131E+00
     5.105E+00    5.080E+00    5.055E+00    5.029E+00    5.003E+00    4.977E+00    4.951E+00    4.925E+00    4.899E+00    4.872E+00
     4.845E+00    4.818E+00    4.791E+00    4.764E+00    4.737E+00    4.709E+00    4.682E+00    4.654E+00    4.625E+00    4.597E+00
     4.568E+00    4.539E+00    4.509E+00    4.480E+00    4.450E+00    4.419E+00    4.389E+00    4.358E+00    4.326E+00    4.294E+00
     4.262E+00    4.229E+00    4.196E+00    4.162E+00    4.128E+00    4.094E+00    4.059E+00    4.023E+00    3.987E+00    3.950E+00
     3.913E+00    3.875E+00    3.837E+00    3.798E+00    3.758E+00    3.718E+00    3.677E+00    3.636E+00    3.594E+00    3.551E+00
     3.508E+00    3.463E+00    3.419E+00    3.373E+00    3.326E+00    3.279E+00    3.231E+00    3.183E+00    3.133E+00    3.083E+00
     3.033E+00    2.982E+00    2.930E+00    2.879E+00    2.827E+00    2.775E+00    2.722E+00    2.670E+00    2.617E+00    2.565E+00
     2.513E+00    2.461E+00    2.409E+00    2.358E+00    2.307E+00    2.257E+00    2.207E+00    2.158E+00    2.109E+00    2.062E+00
     2.015E+00    1.969E+00    1.924E+00    1.880E+00    1.837E+00    1.795E+00    1.755E+00    1.716E+00    1.678E+00    1.642E+00
     1.607E+00    1.574E+00    1.542E+00    1.513E+00    1.485E+00    1.459E+00    1.435E+00    1.413E+00    1.393E+00    1.375E+00
     1.359E+00    1.346E+00    1.335E+00    1.326E+00    1.320E+00    1.315E+00    1.313E+00    1.313E+00    1.315E+00    1.318E+00
     1.324E+00    1.331E+00    1.340E+00    1.351E+00    1.364E+00    1.378E+00    1.393E+00    1.410E+00    1.429E+00    1.449E+00
     1.470E+00    1.492E+00    1.515E+00    1.540E+00    1.566E+00    1.593E+00    1.620E+00    1.649E+00    1.678E+00    1.709E+00
     1.739E+00    1.771E+00    1.803E+00    1.836E+00    1.869E+00    1.903E+00    1.937E+00    1.972E+00    2.006E+00    2.041E+00
     2.076E+00    2.111E+00    2.147E+00    2.182E+00    2.217E+00    2.252E+00    2.287E+00    2.321E+00    2.356E+00    2.390E+00
     2.424E+00    2.457E+00    2.491E+00    2.524E+00    2.557E+00    2.590E+00    2.622E+00    2.655E+00    2.687E+00    2.719E+00
     2.751E+00    2.782E+00    2.814E+00    2.845E+00    2.876E+00    2.907E+00    2.937E+00    2.968E+00    2.998E+00    3.028E+00
     3.058E+00    3.088E+00    3.118E+00    3.147E+00    3.177E+00    3.206E+00    3.235E+00    3.264E+00    3.293E+00    3.321E+00
     3.350E+00    3.378E+00    3.407E+00    3.435E+00    3.463E+00    3.491E+00    3.519E+00    3.546E+00    3.574E+00    3.601E+00
     3.629E+00    3.656E+00    3.683E+00    3.710E+00    3.737E+00    3.764E+00    3.791E+00    3.818E+00    3.844E+00    3.871E+00
     3.897E+00    3.923E+00    3.949E+00    3.975E+00    4.001E+00    4.026E+00    4.052E+00    4.077E+00    4.102E+00    4.127E+00
     4.152E+00    4.177E+00    4.201E+00    4.225E+00    4.249E+00    4.273E+00    4.297E+00    4.320E+00    4.344E+00    4.367E+00
     4.389E+00    4.412E+00    4.434E+00    4.457E+00    4.479E+00    4.500E+00    4.522E+00    4.543E+00    4.564E+00    4.585E+00
     4.605E+00    4.625E+00    4.645E+00    4.665E+00    4.684E+00    4.703E+00    4.722E+00    4.741E+00    4.759E+00    4.777E+00
     4.795E+00    4.812E+00    4.829E+00    4.846E+00    4.863E+00    4.880E+00    4.896E+00    4.912E+00    4.928E+00    4.943E+00
     4.959E+00    4.974E+00    4.989E+00    5.004E+00    5.019E+00    5.034E+00    5.049E+00    5.063E+00    5.077E+00    5.091E+00
     5.106E+00    5.120E+00    5.134E+00    5.147E+00    5.161E+00    5.175E+00    5.189E+00    5.202E+00    5.216E+00    5.229E+00
     5.243E+00    5.256E+00    5.270E+00    5.283E+00    5.297E+00    5.311E+00    5.324E+00    5.338E+00    5.351E+00    5.365E+00
     5.379E+00    5.393E+00    5.407E+00    5.421E+00    5.435E+00    5.449E+00    5.464E+00    5.478E+00    5.492E+00    5.507E+00
     5.522E+00    5.537E+00    5.551E+00    5.566E+00    5.582E+00    5.597E+00    5.612E+00    5.627E+00    5.643E+00    5.659E+00
     5.675E+00    5.690E+00    5.707E+00    5.723E+00    5.739E+00    5.755E+00    5.772E+00    5.789E+00    5.806E+00    5.823E+00
     5.840E+00    5.857E+00    5.874E+00    5.892E+00    5.910E+00    5.927E+00    5.945E+00    5.964E+00    5.982E+00    6.000E+00
     6.019E+00    6.038E+00    6.057E+00    6.076E+00    6.095E+00    6.115E+00    6.135E+00    6.154E+00    6.174E+00    6.195E+00
     6.215E+00    6.235E+00    6.256E+00    6.277E+00    6.298E+00    6.319E+00    6.340E+00    6.361E+00    6.382E+00    6.403E+00
     6.424E+00    6.445E+00    6.467E+00    6.488E+00    6.509E+00    6.530E+00    6.552E+00    6.573E+00    6.594E+00    6.615E+00
     6.636E+00    6.656E+00    6.677E+00    6.698E+00    6.718E+00    6.739E+00    6.759E+00    6.779E+00    6.799E+00    6.818E+00
     6.838E+00    6.857E+00    6.876E+00    6.895E+00    6.913E+00    6.932E+00    6.950E+00    6.967E+00    6.985E+00    7.002E+00
     7.019E+00    7.035E+00    7.051E+00    7.067E+00    7.083E+00    7.098E+00    7.112E+00    7.127E+00    7.141E+00    7.155E+00
     7.169E+00    7.182E+00    7.195E+00    7.208E+00    7.220E+00    7.232E+00    7.244E+00    7.256E+00    7.268E+00    7.279E+00
     7.290E+00    7.301E+00    7.312E+00    7.322E+00    7.333E+00    7.343E+00    7.353E+00    7.363E+00    7.372E+00    7.382E+00
     7.392E+00    7.401E+00    7.410E+00    7.419E+00    7.428E+00    7.437E+00    7.446E+00    7.455E+00    7.463E+00    7.472E+00
     7.480E+00    7.489E+00    7.497E+00    7.506E+00    7.514E+00    7.523E+00    7.531E+00    7.540E+00
 Cr       Conc. = 6.04E+02
