 LCModel (Version 6.3-1L) Copyright: S.W. Provencher.          Ref.: Magn. Reson. Med. 30:672-679 (1993).                
 Slice#2 Row#6 Col#9  K_02_press_1_raw_act
 36 lines in following concentration table = NCONC+1
    Conc.  %SD /Cr+PCr  Metabolite                                         
   10.301 999% 4.8E-03 Ala                                                 
    0.000 999%   0.000 Asp                                                 
   87.203 287% 4.1E-02 Cr                                                  
 2.04E+03  13%   0.959 PCr                                                 
    0.000 999%   0.000 GABA                                                
   62.450 344% 2.9E-02 Glc                                                 
  754.200  32%   0.354 Gln                                                 
 2.26E+03  12%   1.062 Glu                                                 
  955.403   3%   0.448 GPC                                                 
    0.000 999%   0.000 PCh                                                 
  603.245  15%   0.283 GSH                                                 
 2.16E+03  15%   1.012 Ins                                                 
   47.414 274% 2.2E-02 Lac                                                 
 3.20E+03   4%   1.502 NAA                                                 
  574.339  23%   0.269 NAAG                                                
  151.399  24% 7.1E-02 Scyllo                                              
    0.000 999%   0.000 Tau                                                 
  259.057  53%   0.122 -CrCH2                                              
  955.403   3%   0.448 GPC+PCh                                             
 3.78E+03   3%   1.771 NAA+NAAG                                            
 2.13E+03   4%   1.000 Cr+PCr                                              
 3.02E+03  12%   1.415 Glu+Gln                                             
 1.27E+03 126%   0.597 Lip13a                                              
  572.790 163%   0.269 Lip13b                                              
  413.096  98%   0.194 Lip09                                               
 1.98E+03  23%   0.931 MM09                                                
  365.150  70%   0.171 Lip20                                               
 2.83E+03  22%   1.327 MM20                                                
  712.731  55%   0.334 MM12                                                
 3.89E+03  18%   1.825 MM14                                                
 1.23E+03  43%   0.576 MM17                                                
 1.85E+03  50%   0.866 Lip13a+Lip13b                                       
 6.45E+03  15%   3.026 MM14+Lip13a+Lip13b+MM12                             
 2.40E+03  15%   1.125 MM09+Lip09                                          
 3.19E+03  19%   1.498 MM20+Lip20                                          
   6 lines in following misc. output table
  FWHM = 0.038 ppm    S/N =  15                                            
  Data shift = 0.008 ppm                                                   
  Ph: -37 deg     -11.0 deg/ppm                                            
  alphaB,S = 1.0E+00,   1.1E+02                                            
   14 spline knots.   Ns = 6(1)                                            
  ( 7) 3 infls.   ( 3) 1 extrs.                                            
  498 points on ppm-axis = NY
      4.000000     3.992357     3.984714     3.977070     3.969427     3.961784     3.954141     3.946497     3.938854     3.931211
      3.923568     3.915925     3.908281     3.900638     3.892995     3.885352     3.877708     3.870065     3.862422     3.854779
      3.847136     3.839492     3.831849     3.824206     3.816563     3.808919     3.801276     3.793633     3.785990     3.778347
      3.770703     3.763060     3.755417     3.747774     3.740130     3.732487     3.724844     3.717201     3.709558     3.701914
      3.694271     3.686628     3.678985     3.671341     3.663698     3.656055     3.648412     3.640769     3.633125     3.625482
      3.617839     3.610196     3.602552     3.594909     3.587266     3.579623     3.571980     3.564336     3.556693     3.549050
      3.541407     3.533763     3.526120     3.518477     3.510834     3.503191     3.495547     3.487904     3.480261     3.472618
      3.464974     3.457331     3.449688     3.442045     3.434402     3.426758     3.419115     3.411472     3.403829     3.396185
      3.388542     3.380899     3.373256     3.365613     3.357969     3.350326     3.342683     3.335040     3.327396     3.319753
      3.312110     3.304467     3.296824     3.289180     3.281537     3.273894     3.266251     3.258607     3.250964     3.243321
      3.235678     3.228034     3.220391     3.212748     3.205105     3.197462     3.189818     3.182175     3.174532     3.166889
      3.159245     3.151602     3.143959     3.136316     3.128673     3.121029     3.113386     3.105743     3.098100     3.090456
      3.082813     3.075170     3.067527     3.059884     3.052240     3.044597     3.036954     3.029311     3.021667     3.014024
      3.006381     2.998738     2.991095     2.983451     2.975808     2.968165     2.960522     2.952878     2.945235     2.937592
      2.929949     2.922306     2.914662     2.907019     2.899376     2.891733     2.884089     2.876446     2.868803     2.861160
      2.853517     2.845873     2.838230     2.830587     2.822944     2.815300     2.807657     2.800014     2.792371     2.784728
      2.777084     2.769441     2.761798     2.754155     2.746511     2.738868     2.731225     2.723582     2.715939     2.708295
      2.700652     2.693009     2.685366     2.677722     2.670079     2.662436     2.654793     2.647150     2.639506     2.631863
      2.624220     2.616577     2.608933     2.601290     2.593647     2.586004     2.578361     2.570717     2.563074     2.555431
      2.547788     2.540144     2.532501     2.524858     2.517215     2.509572     2.501928     2.494285     2.486642     2.478999
      2.471355     2.463712     2.456069     2.448426     2.440783     2.433139     2.425496     2.417853     2.410210     2.402566
      2.394923     2.387280     2.379637     2.371994     2.364350     2.356707     2.349064     2.341421     2.333777     2.326134
      2.318491     2.310848     2.303205     2.295561     2.287918     2.280275     2.272632     2.264988     2.257345     2.249702
      2.242059     2.234416     2.226772     2.219129     2.211486     2.203843     2.196199     2.188556     2.180913     2.173270
      2.165627     2.157983     2.150340     2.142697     2.135054     2.127410     2.119767     2.112124     2.104481     2.096838
      2.089194     2.081551     2.073908     2.066265     2.058621     2.050978     2.043335     2.035692     2.028049     2.020405
      2.012762     2.005119     1.997476     1.989833     1.982190     1.974546     1.966903     1.959260     1.951617     1.943974
      1.936331     1.928688     1.921045     1.913402     1.905759     1.898115     1.890472     1.882829     1.875186     1.867543
      1.859900     1.852257     1.844614     1.836971     1.829327     1.821684     1.814041     1.806398     1.798755     1.791112
      1.783469     1.775826     1.768183     1.760540     1.752896     1.745253     1.737610     1.729967     1.722324     1.714681
      1.707038     1.699395     1.691752     1.684108     1.676465     1.668822     1.661179     1.653536     1.645893     1.638250
      1.630607     1.622964     1.615321     1.607677     1.600034     1.592391     1.584748     1.577105     1.569462     1.561819
      1.554176     1.546533     1.538890     1.531246     1.523603     1.515960     1.508317     1.500674     1.493031     1.485388
      1.477745     1.470102     1.462458     1.454815     1.447172     1.439529     1.431886     1.424243     1.416600     1.408957
      1.401314     1.393671     1.386027     1.378384     1.370741     1.363098     1.355455     1.347812     1.340169     1.332526
      1.324883     1.317240     1.309596     1.301953     1.294310     1.286667     1.279024     1.271381     1.263738     1.256095
      1.248452     1.240808     1.233165     1.225522     1.217879     1.210236     1.202593     1.194950     1.187307     1.179664
      1.172021     1.164377     1.156734     1.149091     1.141448     1.133805     1.126162     1.118519     1.110876     1.103233
      1.095590     1.087946     1.080303     1.072660     1.065017     1.057374     1.049731     1.042088     1.034445     1.026802
      1.019158     1.011515     1.003872     0.996229     0.988586     0.980943     0.973300     0.965657     0.958014     0.950371
      0.942727     0.935084     0.927441     0.919798     0.912155     0.904512     0.896869     0.889226     0.881583     0.873940
      0.866296     0.858653     0.851010     0.843367     0.835724     0.828081     0.820438     0.812795     0.805152     0.797508
      0.789865     0.782222     0.774579     0.766936     0.759293     0.751650     0.744007     0.736364     0.728721     0.721077
      0.713434     0.705791     0.698148     0.690505     0.682862     0.675219     0.667576     0.659933     0.652290     0.644646
      0.637003     0.629360     0.621717     0.614074     0.606431     0.598788     0.591145     0.583502     0.575858     0.568215
      0.560572     0.552929     0.545286     0.537643     0.530000     0.522357     0.514714     0.507071     0.499427     0.491784
      0.484141     0.476498     0.468855     0.461212     0.453569     0.445925     0.438282     0.430639     0.422996     0.415353
      0.407710     0.400067     0.392424     0.384780     0.377137     0.369494     0.361851     0.354208     0.346565     0.338922
      0.331278     0.323635     0.315992     0.308349     0.300706     0.293063     0.285420     0.277777     0.270133     0.262490
      0.254847     0.247204     0.239561     0.231918     0.224275     0.216631     0.208988     0.201345
 NY phased data points follow
  -8.15940E+01 -7.71219E+01 -8.29779E+01 -7.28412E+01 -6.80300E+01 -6.20693E+01 -5.23688E+01 -4.12098E+01 -2.73023E+01 -2.47879E+01
  -1.88633E+01 -2.69956E+01 -3.25022E+01 -4.62012E+01 -5.90798E+01 -5.91004E+01 -6.54897E+01 -7.45500E+01 -6.76440E+01 -6.37116E+01
  -6.64752E+01 -6.81154E+01 -6.63765E+01 -6.06126E+01 -6.05457E+01 -5.74327E+01 -5.42013E+01 -4.93983E+01 -4.65181E+01 -4.58590E+01
  -5.11717E+01 -4.24852E+01 -4.37889E+01 -4.49273E+01 -4.81948E+01 -4.64694E+01 -5.09836E+01 -5.26086E+01 -5.08335E+01 -5.06198E+01
  -4.48781E+01 -4.31959E+01 -4.47662E+01 -4.48755E+01 -3.90686E+01 -3.43368E+01 -2.97823E+01 -2.45693E+01 -2.63043E+01 -3.25168E+01
  -2.97249E+01 -3.94617E+01 -3.83305E+01 -4.04646E+01 -3.58267E+01 -3.90794E+01 -3.79007E+01 -3.54174E+01 -3.60200E+01 -3.63637E+01
  -4.02772E+01 -4.38317E+01 -4.83319E+01 -4.65224E+01 -4.85279E+01 -5.45149E+01 -4.69925E+01 -4.83319E+01 -4.63105E+01 -5.16112E+01
  -4.57882E+01 -3.84166E+01 -4.10694E+01 -4.08763E+01 -3.63471E+01 -4.14410E+01 -3.57209E+01 -3.62328E+01 -3.92198E+01 -3.42750E+01
  -3.85158E+01 -3.23116E+01 -3.35332E+01 -3.34043E+01 -3.84221E+01 -3.20860E+01 -3.12637E+01 -2.63621E+01 -3.10572E+01 -3.02600E+01
  -2.81171E+01 -2.72279E+01 -2.62838E+01 -2.31260E+01 -1.98822E+01 -1.75674E+01 -1.10610E+01 -9.30397E+00  4.64940E+00  1.37131E+01
   3.02103E+01  5.07905E+01  6.12952E+01  7.30539E+01  5.36033E+01  3.30563E+01  1.19896E+01 -9.32761E-01 -1.68338E+01 -2.02224E+01
  -2.22397E+01 -2.49936E+01 -2.56377E+01 -2.71126E+01 -2.52740E+01 -2.53124E+01 -2.54437E+01 -2.20712E+01 -2.19223E+01 -1.48962E+01
  -1.22576E+01 -1.28666E+01 -1.28731E+00 -7.93897E-01  1.75381E+01  3.22361E+01  5.13695E+01  5.91672E+01  5.81902E+01  4.36192E+01
   2.63767E+01  7.97142E+00 -5.14822E+00 -1.49563E+01 -1.48027E+01 -1.62212E+01 -2.16226E+01 -2.02183E+01 -1.93107E+01 -1.75820E+01
  -1.71895E+01 -1.71607E+01 -1.93928E+01 -1.87591E+01 -2.29803E+01 -1.69551E+01 -2.07948E+01 -1.56891E+01 -1.83665E+01 -1.03276E+01
  -1.41335E+01 -1.35414E+01 -1.84181E+01 -2.31598E+01 -1.77739E+01 -1.66909E+01 -1.45209E+01 -7.03145E+00 -1.36327E+01 -8.29655E+00
  -1.57916E+01 -1.76089E+01 -2.67222E+01 -1.98720E+01 -1.54862E+01 -1.71000E+01 -7.46175E+00 -1.84833E+01 -2.28053E+01 -2.39024E+01
  -2.31957E+01 -2.81307E+01 -2.66390E+01 -2.51897E+01 -3.13192E+01 -3.36994E+01 -3.58187E+01 -3.16509E+01 -2.80216E+01 -2.91478E+01
  -2.37472E+01 -3.12557E+01 -2.89671E+01 -2.49517E+01 -3.14140E+01 -2.58383E+01 -2.75972E+01 -2.47584E+01 -1.45051E+01 -4.72142E+00
  -8.53632E+00 -5.11367E+00 -3.91582E+00 -9.86166E+00 -3.14051E+00 -2.84646E+00 -1.00259E+01 -7.08400E+00 -1.50075E+01 -1.46321E+01
  -1.52920E+01 -1.79836E+01 -2.16088E+00 -3.94362E+00 -6.45276E+00 -6.80262E+00 -9.12963E+00 -1.57119E+01 -1.69273E+01 -2.19833E+01
  -1.45030E+01 -1.26468E+01 -9.41092E+00 -2.12592E+00  1.66576E-01  6.78650E+00  1.17424E+01  9.84053E+00  4.17907E+00 -6.15061E-01
  -7.86326E+00 -1.85128E+01 -1.65687E+01 -1.54602E+01 -8.71753E+00 -3.18568E+00  3.37685E+00  6.63300E+00  5.85523E+00  7.48298E+00
   4.17689E+00  5.61666E+00  6.97451E+00  6.97004E+00  4.99037E+00  5.34859E-01  2.73725E+00  6.57955E+00  6.72260E+00  4.64752E-01
   6.96754E-01 -7.05266E+00 -8.31455E+00 -3.76461E+00 -1.35450E+00  1.07986E+01  8.55780E+00  1.32041E+01  1.16278E+01  1.02752E+01
   1.96076E+01  2.08319E+01  3.07742E+01  3.48047E+01  4.71076E+01  6.22327E+01  6.47980E+01  7.12490E+01  9.11570E+01  1.24550E+02
   1.49940E+02  1.42992E+02  1.22492E+02  8.69688E+01  5.72452E+01  3.44636E+01  1.64943E+01  1.04985E+01  9.06332E+00  1.05040E+01
   8.26614E+00  1.54699E+01  1.19710E+01  1.08873E+01  1.63502E+01  1.23633E+01  1.13354E+01  1.42857E+01  8.41741E+00  1.19300E+01
   9.10373E+00  1.12099E+01  1.00951E+01  7.96675E+00  7.22907E+00  7.65949E+00  6.98541E+00  5.82464E+00  9.52323E+00  1.14703E+01
   1.25362E+01  1.13902E+01  1.31181E+01  1.40071E+01  1.16964E+01  1.33920E+01  1.15560E+01  1.37929E+01  1.35451E+01  9.76531E+00
   1.69376E+01  1.41161E+01  1.47615E+01  1.25129E+01  1.85660E+01  1.98757E+01  2.10305E+01  2.28748E+01  2.42638E+01  2.30925E+01
   2.67309E+01  2.33465E+01  2.51254E+01  2.39642E+01  2.45569E+01  2.13537E+01  2.73096E+01  2.26899E+01  3.34609E+01  3.12932E+01
   3.15610E+01  3.14121E+01  3.05721E+01  3.89506E+01  4.06079E+01  3.27357E+01  3.55506E+01  4.15669E+01  3.79945E+01  3.54112E+01
   3.60480E+01  3.68660E+01  3.34531E+01  3.07853E+01  3.88289E+01  3.55086E+01  3.70742E+01  3.12200E+01  2.87139E+01  2.62592E+01
   2.81656E+01  2.43626E+01  2.40314E+01  2.85311E+01  2.99163E+01  3.17774E+01  3.19839E+01  2.83569E+01  2.38562E+01  2.61367E+01
   2.76538E+01  2.89709E+01  2.45547E+01  2.83239E+01  3.48072E+01  2.80575E+01  2.82958E+01  2.74057E+01  3.20570E+01  2.58924E+01
   2.82364E+01  3.14558E+01  2.88444E+01  3.08645E+01  2.99570E+01  3.19230E+01  2.98090E+01  2.65488E+01  2.33282E+01  2.55653E+01
   2.29451E+01  2.00734E+01  2.10574E+01  2.54376E+01  2.03781E+01  2.06183E+01  2.09945E+01  1.55354E+01  2.07514E+01  1.71839E+01
   2.02457E+01  2.29050E+01  3.04998E+01  2.72219E+01  2.52288E+01  2.40457E+01  2.66769E+01  2.61652E+01  2.70290E+01  2.28228E+01
   2.18583E+01  2.59704E+01  2.60023E+01  2.31132E+01  2.70410E+01  2.52876E+01  2.37355E+01  2.86425E+01  3.14701E+01  3.10961E+01
   3.15033E+01  3.44336E+01  2.79435E+01  3.66227E+01  3.05240E+01  3.27691E+01  3.57007E+01  3.76306E+01  3.69661E+01  3.60020E+01
   3.48827E+01  3.11809E+01  3.34279E+01  3.29065E+01  3.06475E+01  3.59512E+01  3.42153E+01  3.43807E+01  2.82508E+01  2.55419E+01
   2.82699E+01  2.68755E+01  2.62415E+01  2.21313E+01  2.68620E+01  2.84013E+01  2.51536E+01  2.27186E+01  1.86116E+01  2.15321E+01
   2.65236E+01  1.77718E+01  2.21246E+01  1.90874E+01  1.65019E+01  2.31011E+01  1.63953E+01  2.23355E+01  2.13049E+01  1.98070E+01
   2.09857E+01  1.97840E+01  2.03010E+01  2.29129E+01  2.15065E+01  2.20088E+01  1.75559E+01  1.81363E+01  2.04704E+01  2.20737E+01
   2.12384E+01  2.26798E+01  1.80082E+01  1.67063E+01  2.21885E+01  1.65637E+01  1.88358E+01  2.07041E+01  1.56079E+01  1.81716E+01
   1.79278E+01  1.68199E+01  2.00452E+01  1.79639E+01  1.62441E+01  1.82445E+01  1.90115E+01  1.72941E+01  2.07961E+01  2.04125E+01
   1.86632E+01  1.92045E+01  1.78309E+01  1.87343E+01  2.07374E+01  1.45332E+01  1.78894E+01  1.89895E+01  1.60016E+01  1.65755E+01
   1.90666E+01  2.19237E+01  1.87656E+01  1.95365E+01  2.07114E+01  1.91566E+01  1.96030E+01  1.92054E+01  1.70025E+01  2.01834E+01
   1.77742E+01  1.83276E+01  1.53754E+01  1.97969E+01  2.02103E+01  1.78979E+01  1.67638E+01  1.90807E+01
 NY points of the fit to the data follow
  -7.69009E+01 -7.63512E+01 -7.46757E+01 -7.02365E+01 -6.43851E+01 -5.86750E+01 -5.12602E+01 -4.09693E+01 -2.98447E+01 -2.22536E+01
  -2.14549E+01 -2.73878E+01 -3.70652E+01 -4.68504E+01 -5.44453E+01 -5.91648E+01 -6.14541E+01 -6.23563E+01 -6.27316E+01 -6.28728E+01
  -6.28624E+01 -6.27543E+01 -6.27661E+01 -6.21506E+01 -6.07549E+01 -5.94570E+01 -5.77262E+01 -5.47426E+01 -5.04949E+01 -4.60642E+01
  -4.27806E+01 -4.11313E+01 -4.11194E+01 -4.26541E+01 -4.52472E+01 -4.81824E+01 -5.07976E+01 -5.28168E+01 -5.41577E+01 -5.43458E+01
  -5.29447E+01 -5.01662E+01 -4.69563E+01 -4.38833E+01 -4.05681E+01 -3.66041E+01 -3.27006E+01 -3.04372E+01 -3.09468E+01 -3.40929E+01
  -3.86359E+01 -4.31246E+01 -4.63940E+01 -4.78067E+01 -4.76592E+01 -4.65654E+01 -4.50119E+01 -4.32154E+01 -4.13017E+01 -3.96631E+01
  -3.88197E+01 -3.90387E+01 -4.02141E+01 -4.17912E+01 -4.31381E+01 -4.36221E+01 -4.30658E+01 -4.18355E+01 -4.03046E+01 -3.87151E+01
  -3.72518E+01 -3.61425E+01 -3.55582E+01 -3.54804E+01 -3.57116E+01 -3.60007E+01 -3.61802E+01 -3.61851E+01 -3.60223E+01 -3.57342E+01
  -3.53337E+01 -3.45329E+01 -3.37544E+01 -3.31496E+01 -3.22482E+01 -3.09205E+01 -2.96716E+01 -2.91623E+01 -2.95904E+01 -3.05645E+01
  -3.13311E+01 -3.15155E+01 -3.10581E+01 -3.00212E+01 -2.84557E+01 -2.56591E+01 -1.89355E+01 -9.78866E+00 -7.92344E-01  1.18761E+01
   3.11936E+01  5.30253E+01  6.80386E+01  6.89658E+01  5.57067E+01  3.43522E+01  1.24007E+01 -5.22320E+00 -1.67741E+01 -2.28018E+01
  -2.51431E+01 -2.57642E+01 -2.58140E+01 -2.56711E+01 -2.54479E+01 -2.51674E+01 -2.48404E+01 -2.44571E+01 -2.39305E+01 -2.30152E+01
  -2.03863E+01 -1.31679E+01 -4.89900E+00  3.23719E+00  1.53679E+01  3.29239E+01  5.07875E+01  6.07453E+01  5.79315E+01  4.41334E+01
   2.57545E+01  8.74354E+00 -4.09806E+00 -1.24027E+01 -1.72596E+01 -1.99452E+01 -2.14170E+01 -2.18487E+01 -2.11961E+01 -1.97492E+01
  -1.80924E+01 -1.68270E+01 -1.62597E+01 -1.63510E+01 -1.68440E+01 -1.74282E+01 -1.78971E+01 -1.82042E+01 -1.84231E+01 -1.85841E+01
  -1.87117E+01 -1.88527E+01 -1.89840E+01 -1.90383E+01 -1.89881E+01 -1.89789E+01 -1.88596E+01 -1.86701E+01 -1.87386E+01 -1.91767E+01
  -2.00399E+01 -2.07864E+01 -2.07353E+01 -1.99028E+01 -1.89496E+01 -1.85436E+01 -1.89479E+01 -1.99333E+01 -2.10315E+01 -2.18913E+01
  -2.24479E+01 -2.26940E+01 -2.26631E+01 -2.28853E+01 -2.35459E+01 -2.43247E+01 -2.44531E+01 -2.36069E+01 -2.24392E+01 -2.17530E+01
  -2.17075E+01 -2.19828E+01 -2.18525E+01 -2.11168E+01 -2.02256E+01 -1.93373E+01 -1.81136E+01 -1.62206E+01 -1.36146E+01 -1.07675E+01
  -8.52166E+00 -7.48610E+00 -7.87642E+00 -9.17256E+00 -1.07151E+01 -1.19370E+01 -1.25046E+01 -1.22032E+01 -1.08718E+01 -8.95483E+00
  -6.86417E+00 -4.87146E+00 -3.19475E+00 -2.19322E+00 -2.45351E+00 -3.90654E+00 -6.58162E+00 -1.03405E+01 -1.39423E+01 -1.60923E+01
  -1.59240E+01 -1.39695E+01 -1.08230E+01 -6.31616E+00 -8.80229E-01  3.82059E+00  5.60963E+00  3.70645E+00 -7.68756E-01 -6.40364E+00
  -1.23250E+01 -1.71282E+01 -1.91070E+01 -1.73711E+01 -1.25988E+01 -6.65201E+00 -1.20637E+00  2.76571E+00  4.79279E+00  4.91740E+00
   3.94247E+00  3.08449E+00  2.85112E+00  3.28797E+00  4.32504E+00  5.68001E+00  6.81067E+00  7.17815E+00  6.78365E+00  5.78604E+00
   4.31684E+00  2.78123E+00  2.04594E+00  2.73561E+00  4.71834E+00  7.28239E+00  9.70041E+00  1.15869E+01  1.28965E+01  1.43726E+01
   1.63458E+01  1.84727E+01  2.17870E+01  2.80940E+01  4.17672E+01  5.86603E+01  6.99442E+01  8.13296E+01  1.00520E+02  1.24804E+02
   1.41899E+02  1.41083E+02  1.21512E+02  9.13662E+01  6.09792E+01  3.68963E+01  2.12349E+01  1.31728E+01  1.00934E+01  9.11179E+00
   8.63308E+00  8.42249E+00  8.48233E+00  8.73027E+00  8.98707E+00  9.09675E+00  9.04065E+00  8.88622E+00  8.68639E+00  8.50023E+00
   8.39310E+00  8.40867E+00  8.53638E+00  8.72372E+00  8.91647E+00  9.10132E+00  9.28214E+00  9.46301E+00  9.66767E+00  9.93463E+00
   1.02912E+01  1.07328E+01  1.12267E+01  1.17412E+01  1.22637E+01  1.27828E+01  1.32954E+01  1.38132E+01  1.43576E+01  1.49450E+01
   1.55784E+01  1.62474E+01  1.69364E+01  1.76316E+01  1.83241E+01  1.90099E+01  1.96907E+01  2.03712E+01  2.10587E+01  2.17602E+01
   2.24824E+01  2.32297E+01  2.40052E+01  2.48117E+01  2.56517E+01  2.65262E+01  2.74331E+01  2.83661E+01  2.93160E+01  3.02716E+01
   3.12207E+01  3.21492E+01  3.30294E+01  3.38384E+01  3.45646E+01  3.51871E+01  3.56752E+01  3.60027E+01  3.61623E+01  3.61729E+01
   3.60557E+01  3.58163E+01  3.54669E+01  3.50277E+01  3.45144E+01  3.39308E+01  3.32771E+01  3.25629E+01  3.18128E+01  3.10624E+01
   3.03534E+01  2.97299E+01  2.91813E+01  2.87037E+01  2.83506E+01  2.81248E+01  2.79614E+01  2.77913E+01  2.76159E+01  2.75404E+01
   2.76260E+01  2.78649E+01  2.82561E+01  2.87908E+01  2.94041E+01  2.99666E+01  3.03423E+01  3.04546E+01  3.03059E+01  2.99479E+01
   2.94448E+01  2.88548E+01  2.82229E+01  2.75787E+01  2.69398E+01  2.63207E+01  2.57339E+01  2.51875E+01  2.46852E+01  2.42280E+01
   2.38152E+01  2.34451E+01  2.31154E+01  2.28240E+01  2.25694E+01  2.23516E+01  2.21712E+01  2.20292E+01  2.19267E+01  2.18648E+01
   2.18454E+01  2.18705E+01  2.19427E+01  2.20641E+01  2.22367E+01  2.24624E+01  2.27434E+01  2.30822E+01  2.34805E+01  2.39394E+01
   2.44587E+01  2.50377E+01  2.56746E+01  2.63659E+01  2.71064E+01  2.78881E+01  2.87010E+01  2.95330E+01  3.03704E+01  3.11975E+01
   3.19968E+01  3.27496E+01  3.34372E+01  3.40419E+01  3.45472E+01  3.49386E+01  3.52042E+01  3.53354E+01  3.53279E+01  3.51816E+01
   3.49009E+01  3.44935E+01  3.39707E+01  3.33466E+01  3.26381E+01  3.18635E+01  3.10416E+01  3.01907E+01  2.93279E+01  2.84692E+01
   2.76290E+01  2.68192E+01  2.60492E+01  2.53257E+01  2.46531E+01  2.40342E+01  2.34700E+01  2.29598E+01  2.25017E+01  2.20925E+01
   2.17286E+01  2.14066E+01  2.11228E+01  2.08733E+01  2.06542E+01  2.04615E+01  2.02921E+01  2.01434E+01  2.00128E+01  1.98979E+01
   1.97963E+01  1.97062E+01  1.96261E+01  1.95550E+01  1.94918E+01  1.94353E+01  1.93843E+01  1.93382E+01  1.92966E+01  1.92590E+01
   1.92250E+01  1.91939E+01  1.91652E+01  1.91387E+01  1.91145E+01  1.90923E+01  1.90718E+01  1.90526E+01  1.90345E+01  1.90175E+01
   1.90018E+01  1.89872E+01  1.89734E+01  1.89602E+01  1.89475E+01  1.89355E+01  1.89244E+01  1.89138E+01  1.89036E+01  1.88936E+01
   1.88840E+01  1.88749E+01  1.88664E+01  1.88582E+01  1.88501E+01  1.88422E+01  1.88347E+01  1.88276E+01  1.88210E+01  1.88144E+01
   1.88080E+01  1.88017E+01  1.87959E+01  1.87905E+01  1.87854E+01  1.87804E+01  1.87756E+01  1.87711E+01  1.87670E+01  1.87635E+01
   1.87602E+01  1.87571E+01  1.87542E+01  1.87519E+01  1.87502E+01  1.87490E+01  1.87481E+01  1.87476E+01
 NY background values follow
    -8.298E+01   -8.238E+01   -8.178E+01   -8.118E+01   -8.058E+01   -7.998E+01   -7.938E+01   -7.878E+01   -7.818E+01   -7.758E+01
    -7.698E+01   -7.638E+01   -7.578E+01   -7.518E+01   -7.459E+01   -7.399E+01   -7.339E+01   -7.280E+01   -7.221E+01   -7.161E+01
    -7.102E+01   -7.043E+01   -6.984E+01   -6.926E+01   -6.867E+01   -6.808E+01   -6.750E+01   -6.692E+01   -6.634E+01   -6.576E+01
    -6.519E+01   -6.461E+01   -6.404E+01   -6.347E+01   -6.291E+01   -6.234E+01   -6.178E+01   -6.122E+01   -6.066E+01   -6.011E+01
    -5.955E+01   -5.901E+01   -5.846E+01   -5.792E+01   -5.737E+01   -5.684E+01   -5.630E+01   -5.577E+01   -5.525E+01   -5.472E+01
    -5.420E+01   -5.368E+01   -5.317E+01   -5.266E+01   -5.215E+01   -5.164E+01   -5.114E+01   -5.065E+01   -5.015E+01   -4.966E+01
    -4.917E+01   -4.869E+01   -4.821E+01   -4.773E+01   -4.726E+01   -4.679E+01   -4.632E+01   -4.586E+01   -4.540E+01   -4.494E+01
    -4.449E+01   -4.404E+01   -4.359E+01   -4.315E+01   -4.271E+01   -4.228E+01   -4.185E+01   -4.142E+01   -4.099E+01   -4.057E+01
    -4.016E+01   -3.974E+01   -3.934E+01   -3.893E+01   -3.853E+01   -3.813E+01   -3.774E+01   -3.735E+01   -3.696E+01   -3.658E+01
    -3.620E+01   -3.582E+01   -3.545E+01   -3.509E+01   -3.472E+01   -3.436E+01   -3.401E+01   -3.366E+01   -3.331E+01   -3.297E+01
    -3.263E+01   -3.229E+01   -3.196E+01   -3.163E+01   -3.130E+01   -3.098E+01   -3.067E+01   -3.036E+01   -3.005E+01   -2.974E+01
    -2.944E+01   -2.914E+01   -2.885E+01   -2.856E+01   -2.828E+01   -2.800E+01   -2.772E+01   -2.744E+01   -2.718E+01   -2.691E+01
    -2.665E+01   -2.639E+01   -2.614E+01   -2.589E+01   -2.564E+01   -2.540E+01   -2.516E+01   -2.493E+01   -2.470E+01   -2.447E+01
    -2.425E+01   -2.403E+01   -2.382E+01   -2.361E+01   -2.340E+01   -2.320E+01   -2.300E+01   -2.281E+01   -2.262E+01   -2.243E+01
    -2.225E+01   -2.207E+01   -2.189E+01   -2.172E+01   -2.155E+01   -2.138E+01   -2.122E+01   -2.106E+01   -2.090E+01   -2.074E+01
    -2.059E+01   -2.043E+01   -2.028E+01   -2.013E+01   -1.999E+01   -1.984E+01   -1.970E+01   -1.955E+01   -1.941E+01   -1.927E+01
    -1.913E+01   -1.899E+01   -1.885E+01   -1.871E+01   -1.857E+01   -1.844E+01   -1.830E+01   -1.816E+01   -1.802E+01   -1.788E+01
    -1.775E+01   -1.761E+01   -1.747E+01   -1.732E+01   -1.718E+01   -1.704E+01   -1.689E+01   -1.675E+01   -1.660E+01   -1.645E+01
    -1.630E+01   -1.615E+01   -1.599E+01   -1.583E+01   -1.567E+01   -1.551E+01   -1.535E+01   -1.519E+01   -1.502E+01   -1.485E+01
    -1.468E+01   -1.451E+01   -1.433E+01   -1.416E+01   -1.398E+01   -1.380E+01   -1.363E+01   -1.344E+01   -1.326E+01   -1.308E+01
    -1.289E+01   -1.271E+01   -1.252E+01   -1.233E+01   -1.214E+01   -1.195E+01   -1.175E+01   -1.156E+01   -1.137E+01   -1.117E+01
    -1.097E+01   -1.078E+01   -1.058E+01   -1.038E+01   -1.018E+01   -9.979E+00   -9.778E+00   -9.576E+00   -9.373E+00   -9.170E+00
    -8.966E+00   -8.761E+00   -8.556E+00   -8.351E+00   -8.146E+00   -7.939E+00   -7.733E+00   -7.526E+00   -7.320E+00   -7.112E+00
    -6.905E+00   -6.698E+00   -6.490E+00   -6.282E+00   -6.074E+00   -5.866E+00   -5.658E+00   -5.450E+00   -5.242E+00   -5.034E+00
    -4.826E+00   -4.618E+00   -4.410E+00   -4.203E+00   -3.995E+00   -3.788E+00   -3.581E+00   -3.374E+00   -3.168E+00   -2.961E+00
    -2.755E+00   -2.550E+00   -2.344E+00   -2.140E+00   -1.935E+00   -1.731E+00   -1.528E+00   -1.325E+00   -1.122E+00   -9.203E-01
    -7.190E-01   -5.182E-01   -3.181E-01   -1.187E-01    8.006E-02    2.781E-01    4.754E-01    6.720E-01    8.677E-01    1.063E+00
     1.257E+00    1.450E+00    1.642E+00    1.834E+00    2.024E+00    2.214E+00    2.403E+00    2.590E+00    2.777E+00    2.963E+00
     3.148E+00    3.332E+00    3.515E+00    3.697E+00    3.878E+00    4.058E+00    4.237E+00    4.415E+00    4.592E+00    4.768E+00
     4.943E+00    5.117E+00    5.290E+00    5.461E+00    5.632E+00    5.802E+00    5.970E+00    6.138E+00    6.304E+00    6.470E+00
     6.634E+00    6.797E+00    6.959E+00    7.120E+00    7.279E+00    7.438E+00    7.595E+00    7.751E+00    7.907E+00    8.060E+00
     8.213E+00    8.365E+00    8.515E+00    8.664E+00    8.812E+00    8.958E+00    9.104E+00    9.248E+00    9.391E+00    9.533E+00
     9.673E+00    9.812E+00    9.950E+00    1.009E+01    1.022E+01    1.036E+01    1.049E+01    1.062E+01    1.075E+01    1.088E+01
     1.101E+01    1.114E+01    1.126E+01    1.139E+01    1.151E+01    1.164E+01    1.176E+01    1.188E+01    1.200E+01    1.211E+01
     1.223E+01    1.235E+01    1.246E+01    1.257E+01    1.269E+01    1.280E+01    1.291E+01    1.301E+01    1.312E+01    1.323E+01
     1.333E+01    1.344E+01    1.354E+01    1.364E+01    1.374E+01    1.384E+01    1.394E+01    1.404E+01    1.414E+01    1.423E+01
     1.433E+01    1.442E+01    1.451E+01    1.460E+01    1.469E+01    1.478E+01    1.487E+01    1.496E+01    1.504E+01    1.513E+01
     1.521E+01    1.529E+01    1.537E+01    1.545E+01    1.553E+01    1.561E+01    1.569E+01    1.577E+01    1.584E+01    1.592E+01
     1.599E+01    1.606E+01    1.613E+01    1.620E+01    1.627E+01    1.634E+01    1.641E+01    1.647E+01    1.654E+01    1.660E+01
     1.666E+01    1.672E+01    1.679E+01    1.684E+01    1.690E+01    1.696E+01    1.702E+01    1.707E+01    1.713E+01    1.718E+01
     1.723E+01    1.729E+01    1.734E+01    1.739E+01    1.743E+01    1.748E+01    1.753E+01    1.757E+01    1.762E+01    1.766E+01
     1.771E+01    1.775E+01    1.779E+01    1.783E+01    1.787E+01    1.790E+01    1.794E+01    1.798E+01    1.801E+01    1.805E+01
     1.808E+01    1.811E+01    1.815E+01    1.818E+01    1.821E+01    1.824E+01    1.826E+01    1.829E+01    1.832E+01    1.834E+01
     1.837E+01    1.839E+01    1.842E+01    1.844E+01    1.846E+01    1.848E+01    1.850E+01    1.852E+01    1.854E+01    1.856E+01
     1.858E+01    1.860E+01    1.861E+01    1.863E+01    1.865E+01    1.866E+01    1.867E+01    1.869E+01    1.870E+01    1.871E+01
     1.872E+01    1.873E+01    1.875E+01    1.876E+01    1.876E+01    1.877E+01    1.878E+01    1.879E+01    1.880E+01    1.880E+01
     1.881E+01    1.882E+01    1.882E+01    1.883E+01    1.883E+01    1.883E+01    1.884E+01    1.884E+01    1.885E+01    1.885E+01
     1.885E+01    1.885E+01    1.886E+01    1.886E+01    1.886E+01    1.886E+01    1.886E+01    1.886E+01    1.886E+01    1.886E+01
     1.886E+01    1.886E+01    1.886E+01    1.887E+01    1.887E+01    1.887E+01    1.887E+01    1.887E+01    1.887E+01    1.887E+01
     1.887E+01    1.887E+01    1.887E+01    1.887E+01    1.887E+01    1.887E+01    1.887E+01    1.887E+01
 Ala      Conc. = 1.03E+01
