 LCModel (Version 6.3-1L) Copyright: S.W. Provencher.          Ref.: Magn. Reson. Med. 30:672-679 (1993).                
 Slice#2 Row#12 Col#4  K_02_press_1_raw_act
 36 lines in following concentration table = NCONC+1
    Conc.  %SD /Cr+PCr  Metabolite                                         
    0.000 999%   0.000 Ala                                                 
    0.000 999%   0.000 Asp                                                 
  921.759   7%   1.000 Cr                                                  
    0.000 999%   0.000 PCr                                                 
  210.391  73%   0.228 GABA                                                
    0.000 999%   0.000 Glc                                                 
 1.94E+03  27%   2.103 Gln                                                 
 1.92E+03  31%   2.082 Glu                                                 
  484.772   6%   0.526 GPC                                                 
    0.000 999%   0.000 PCh                                                 
  937.291  10%   1.017 GSH                                                 
 3.20E+03  14%   3.470 Ins                                                 
  513.190  44%   0.557 Lac                                                 
 1.76E+03   4%   1.911 NAA                                                 
    0.000 999%   0.000 NAAG                                                
  219.710  15%   0.238 Scyllo                                              
    0.000 999%   0.000 Tau                                                 
    0.000 999%   0.000 -CrCH2                                              
  484.772   6%   0.526 GPC+PCh                                             
 1.76E+03   4%   1.911 NAA+NAAG                                            
  921.759   7%   1.000 Cr+PCr                                              
 3.86E+03  26%   4.185 Glu+Gln                                             
    0.000 999%   0.000 Lip13a                                              
    0.000 999%   0.000 Lip13b                                              
    0.000 999%   0.000 Lip09                                               
  945.481  19%   1.026 MM09                                                
   30.522 286% 3.3E-02 Lip20                                               
  816.280  45%   0.886 MM20                                                
  301.981  45%   0.328 MM12                                                
 1.94E+03  16%   2.100 MM14                                                
 1.31E+03  18%   1.423 MM17                                                
    0.000 999%   0.000 Lip13a+Lip13b                                       
 2.24E+03  16%   2.428 MM14+Lip13a+Lip13b+MM12                             
  945.481  19%   1.026 MM09+Lip09                                          
  846.802  43%   0.919 MM20+Lip20                                          
   6 lines in following misc. output table
  FWHM = 0.092 ppm    S/N =   8                                            
  Data shift = 0.023 ppm                                                   
  Ph: -49 deg     -15.9 deg/ppm                                            
  alphaB,S = 5.7E-01,   9.1E+01                                            
   14 spline knots.   Ns = 6(2)                                            
  ( 9) 2 infls.   ( 3) 1 extrs.                                            
  498 points on ppm-axis = NY
      4.000000     3.992357     3.984714     3.977070     3.969427     3.961784     3.954141     3.946497     3.938854     3.931211
      3.923568     3.915925     3.908281     3.900638     3.892995     3.885352     3.877708     3.870065     3.862422     3.854779
      3.847136     3.839492     3.831849     3.824206     3.816563     3.808919     3.801276     3.793633     3.785990     3.778347
      3.770703     3.763060     3.755417     3.747774     3.740130     3.732487     3.724844     3.717201     3.709558     3.701914
      3.694271     3.686628     3.678985     3.671341     3.663698     3.656055     3.648412     3.640769     3.633125     3.625482
      3.617839     3.610196     3.602552     3.594909     3.587266     3.579623     3.571980     3.564336     3.556693     3.549050
      3.541407     3.533763     3.526120     3.518477     3.510834     3.503191     3.495547     3.487904     3.480261     3.472618
      3.464974     3.457331     3.449688     3.442045     3.434402     3.426758     3.419115     3.411472     3.403829     3.396185
      3.388542     3.380899     3.373256     3.365613     3.357969     3.350326     3.342683     3.335040     3.327396     3.319753
      3.312110     3.304467     3.296824     3.289180     3.281537     3.273894     3.266251     3.258607     3.250964     3.243321
      3.235678     3.228034     3.220391     3.212748     3.205105     3.197462     3.189818     3.182175     3.174532     3.166889
      3.159245     3.151602     3.143959     3.136316     3.128673     3.121029     3.113386     3.105743     3.098100     3.090456
      3.082813     3.075170     3.067527     3.059884     3.052240     3.044597     3.036954     3.029311     3.021667     3.014024
      3.006381     2.998738     2.991095     2.983451     2.975808     2.968165     2.960522     2.952878     2.945235     2.937592
      2.929949     2.922306     2.914662     2.907019     2.899376     2.891733     2.884089     2.876446     2.868803     2.861160
      2.853517     2.845873     2.838230     2.830587     2.822944     2.815300     2.807657     2.800014     2.792371     2.784728
      2.777084     2.769441     2.761798     2.754155     2.746511     2.738868     2.731225     2.723582     2.715939     2.708295
      2.700652     2.693009     2.685366     2.677722     2.670079     2.662436     2.654793     2.647150     2.639506     2.631863
      2.624220     2.616577     2.608933     2.601290     2.593647     2.586004     2.578361     2.570717     2.563074     2.555431
      2.547788     2.540144     2.532501     2.524858     2.517215     2.509572     2.501928     2.494285     2.486642     2.478999
      2.471355     2.463712     2.456069     2.448426     2.440783     2.433139     2.425496     2.417853     2.410210     2.402566
      2.394923     2.387280     2.379637     2.371994     2.364350     2.356707     2.349064     2.341421     2.333777     2.326134
      2.318491     2.310848     2.303205     2.295561     2.287918     2.280275     2.272632     2.264988     2.257345     2.249702
      2.242059     2.234416     2.226772     2.219129     2.211486     2.203843     2.196199     2.188556     2.180913     2.173270
      2.165627     2.157983     2.150340     2.142697     2.135054     2.127410     2.119767     2.112124     2.104481     2.096838
      2.089194     2.081551     2.073908     2.066265     2.058621     2.050978     2.043335     2.035692     2.028049     2.020405
      2.012762     2.005119     1.997476     1.989833     1.982190     1.974546     1.966903     1.959260     1.951617     1.943974
      1.936331     1.928688     1.921045     1.913402     1.905759     1.898115     1.890472     1.882829     1.875186     1.867543
      1.859900     1.852257     1.844614     1.836971     1.829327     1.821684     1.814041     1.806398     1.798755     1.791112
      1.783469     1.775826     1.768183     1.760540     1.752896     1.745253     1.737610     1.729967     1.722324     1.714681
      1.707038     1.699395     1.691752     1.684108     1.676465     1.668822     1.661179     1.653536     1.645893     1.638250
      1.630607     1.622964     1.615321     1.607677     1.600034     1.592391     1.584748     1.577105     1.569462     1.561819
      1.554176     1.546533     1.538890     1.531246     1.523603     1.515960     1.508317     1.500674     1.493031     1.485388
      1.477745     1.470102     1.462458     1.454815     1.447172     1.439529     1.431886     1.424243     1.416600     1.408957
      1.401314     1.393671     1.386027     1.378384     1.370741     1.363098     1.355455     1.347812     1.340169     1.332526
      1.324883     1.317240     1.309596     1.301953     1.294310     1.286667     1.279024     1.271381     1.263738     1.256095
      1.248452     1.240808     1.233165     1.225522     1.217879     1.210236     1.202593     1.194950     1.187307     1.179664
      1.172021     1.164377     1.156734     1.149091     1.141448     1.133805     1.126162     1.118519     1.110876     1.103233
      1.095590     1.087946     1.080303     1.072660     1.065017     1.057374     1.049731     1.042088     1.034445     1.026802
      1.019158     1.011515     1.003872     0.996229     0.988586     0.980943     0.973300     0.965657     0.958014     0.950371
      0.942727     0.935084     0.927441     0.919798     0.912155     0.904512     0.896869     0.889226     0.881583     0.873940
      0.866296     0.858653     0.851010     0.843367     0.835724     0.828081     0.820438     0.812795     0.805152     0.797508
      0.789865     0.782222     0.774579     0.766936     0.759293     0.751650     0.744007     0.736364     0.728721     0.721077
      0.713434     0.705791     0.698148     0.690505     0.682862     0.675219     0.667576     0.659933     0.652290     0.644646
      0.637003     0.629360     0.621717     0.614074     0.606431     0.598788     0.591145     0.583502     0.575858     0.568215
      0.560572     0.552929     0.545286     0.537643     0.530000     0.522357     0.514714     0.507071     0.499427     0.491784
      0.484141     0.476498     0.468855     0.461212     0.453569     0.445925     0.438282     0.430639     0.422996     0.415353
      0.407710     0.400067     0.392424     0.384780     0.377137     0.369494     0.361851     0.354208     0.346565     0.338922
      0.331278     0.323635     0.315992     0.308349     0.300706     0.293063     0.285420     0.277777     0.270133     0.262490
      0.254847     0.247204     0.239561     0.231918     0.224275     0.216631     0.208988     0.201345
 NY phased data points follow
  -3.10958E+02 -3.04788E+02 -2.96105E+02 -2.91465E+02 -2.87761E+02 -2.77240E+02 -2.74530E+02 -2.71745E+02 -2.66750E+02 -2.62749E+02
  -2.61083E+02 -2.55881E+02 -2.56957E+02 -2.58104E+02 -2.55007E+02 -2.55084E+02 -2.54308E+02 -2.53965E+02 -2.49626E+02 -2.46536E+02
  -2.45028E+02 -2.39669E+02 -2.39992E+02 -2.34452E+02 -2.31845E+02 -2.26525E+02 -2.24754E+02 -2.21824E+02 -2.17899E+02 -2.13145E+02
  -2.11622E+02 -2.07629E+02 -2.04733E+02 -2.02835E+02 -2.01888E+02 -1.99717E+02 -1.97658E+02 -1.96756E+02 -1.94393E+02 -1.89114E+02
  -1.87531E+02 -1.86834E+02 -1.84990E+02 -1.82995E+02 -1.81028E+02 -1.76374E+02 -1.74665E+02 -1.76154E+02 -1.71801E+02 -1.70701E+02
  -1.72116E+02 -1.71741E+02 -1.69619E+02 -1.70546E+02 -1.68977E+02 -1.66068E+02 -1.63637E+02 -1.64216E+02 -1.63354E+02 -1.61406E+02
  -1.61423E+02 -1.63100E+02 -1.58797E+02 -1.59225E+02 -1.57880E+02 -1.56820E+02 -1.57041E+02 -1.51110E+02 -1.51476E+02 -1.49894E+02
  -1.48600E+02 -1.44007E+02 -1.45222E+02 -1.43706E+02 -1.39822E+02 -1.42813E+02 -1.38860E+02 -1.35034E+02 -1.33250E+02 -1.31291E+02
  -1.32164E+02 -1.30923E+02 -1.30109E+02 -1.30844E+02 -1.23373E+02 -1.28066E+02 -1.25608E+02 -1.22482E+02 -1.25126E+02 -1.18912E+02
  -1.17659E+02 -1.14905E+02 -1.16008E+02 -1.14521E+02 -1.12977E+02 -1.06153E+02 -1.01580E+02 -1.01875E+02 -9.94370E+01 -9.58623E+01
  -9.19119E+01 -8.88427E+01 -8.70356E+01 -9.01799E+01 -8.99954E+01 -9.40678E+01 -9.15274E+01 -9.22189E+01 -9.66616E+01 -9.56370E+01
  -9.51796E+01 -9.62105E+01 -9.78473E+01 -9.49155E+01 -9.63507E+01 -9.63546E+01 -9.56234E+01 -9.20370E+01 -9.28123E+01 -8.95175E+01
  -8.66158E+01 -8.76872E+01 -8.33807E+01 -7.82360E+01 -7.61700E+01 -7.31584E+01 -6.65470E+01 -6.81536E+01 -7.29977E+01 -7.17464E+01
  -7.37489E+01 -7.63315E+01 -7.69498E+01 -8.02659E+01 -7.83834E+01 -7.97225E+01 -8.16262E+01 -8.00575E+01 -8.21236E+01 -7.80665E+01
  -8.05359E+01 -7.85925E+01 -7.88589E+01 -7.64242E+01 -7.55715E+01 -7.67877E+01 -7.87556E+01 -7.42288E+01 -7.59598E+01 -7.33383E+01
  -7.33965E+01 -6.90429E+01 -7.29212E+01 -7.14892E+01 -7.07198E+01 -6.69942E+01 -6.79467E+01 -6.85927E+01 -6.77415E+01 -6.83197E+01
  -6.72741E+01 -6.47589E+01 -6.82983E+01 -6.65421E+01 -6.92967E+01 -6.56179E+01 -6.39900E+01 -6.42468E+01 -6.85553E+01 -6.61670E+01
  -6.51626E+01 -6.52898E+01 -6.96038E+01 -6.80318E+01 -6.92800E+01 -6.74521E+01 -6.73795E+01 -6.71427E+01 -6.47223E+01 -6.76374E+01
  -6.49246E+01 -6.47324E+01 -6.53482E+01 -6.18505E+01 -6.10232E+01 -5.73125E+01 -5.94825E+01 -5.73911E+01 -5.66430E+01 -5.46986E+01
  -5.57570E+01 -5.31485E+01 -5.31256E+01 -5.27490E+01 -5.12885E+01 -5.22386E+01 -5.24540E+01 -5.07434E+01 -4.98460E+01 -5.12610E+01
  -4.73512E+01 -4.80298E+01 -4.67268E+01 -4.69934E+01 -4.83886E+01 -4.79567E+01 -4.74654E+01 -4.99543E+01 -4.52650E+01 -4.41749E+01
  -4.89407E+01 -4.48381E+01 -4.44036E+01 -4.47936E+01 -4.19079E+01 -4.32993E+01 -3.78343E+01 -3.84547E+01 -4.10339E+01 -4.11506E+01
  -4.13114E+01 -4.17930E+01 -3.91745E+01 -3.95097E+01 -3.40973E+01 -3.68491E+01 -3.68005E+01 -3.51054E+01 -3.76003E+01 -3.52309E+01
  -3.52812E+01 -3.30472E+01 -3.30719E+01 -3.09079E+01 -3.36331E+01 -3.26162E+01 -3.28049E+01 -3.16945E+01 -2.98185E+01 -3.35507E+01
  -3.00647E+01 -2.96177E+01 -3.21568E+01 -3.02774E+01 -2.84871E+01 -2.57365E+01 -2.63576E+01 -2.41602E+01 -2.21081E+01 -1.60985E+01
  -1.75029E+01 -1.57654E+01 -1.47008E+01 -6.74982E+00 -1.39360E+00  6.80739E-01  3.91167E+00  8.93725E+00  1.52137E+01  1.68538E+01
   1.31790E+01  1.06631E+01  6.49445E+00  2.71155E+00  1.15936E+00 -4.40051E+00 -3.40505E+00 -7.87702E+00 -1.14399E+01 -8.79974E+00
  -1.44030E+01 -1.63524E+01 -1.83974E+01 -1.71609E+01 -1.90616E+01 -1.67196E+01 -1.46214E+01 -1.46023E+01 -1.60031E+01 -1.84384E+01
  -1.77214E+01 -1.31120E+01 -1.73196E+01 -2.02806E+01 -1.72474E+01 -1.58965E+01 -1.56577E+01 -1.58353E+01 -1.81959E+01 -1.55878E+01
  -1.16713E+01 -1.31705E+01 -9.87389E+00 -1.02581E+01 -1.26144E+01 -1.25756E+01 -1.20109E+01 -8.26863E+00 -9.00122E+00 -1.03529E+01
  -9.81494E+00 -6.05175E+00 -1.20307E+01 -6.37591E+00 -5.75795E+00 -6.22237E+00 -3.76107E+00 -3.33487E+00 -2.56554E+00 -2.07283E+00
  -1.17292E+00  1.26209E+00  2.73471E+00  1.56566E+00  3.15841E+00  1.02915E-01  1.65477E-01  2.67409E+00 -1.42389E-01 -1.10173E+00
   1.10074E-01  4.90510E+00  5.43032E+00  2.10287E+00  7.79520E-01  7.02946E-01  2.02589E+00 -8.54246E-01 -1.68157E+00 -2.56560E-01
  -1.43562E+00 -2.57089E-01  2.41103E-01 -1.93798E+00 -2.50722E+00 -4.48092E+00 -4.65862E+00 -3.52055E+00 -6.91602E+00 -4.77104E+00
  -8.57113E+00 -1.06320E+01 -1.12365E+01 -7.16707E+00 -1.15096E+01 -1.68268E+01 -1.25111E+01 -1.84361E+01 -1.54941E+01 -1.71907E+01
  -1.58612E+01 -1.62950E+01 -1.66519E+01 -1.78815E+01 -1.75910E+01 -1.70014E+01 -1.54534E+01 -1.72663E+01 -1.51956E+01 -1.51710E+01
  -1.36018E+01 -1.24949E+01 -1.68538E+01 -1.45199E+01 -1.70887E+01 -1.52657E+01 -1.33166E+01 -1.77056E+01 -1.25598E+01 -1.63577E+01
  -1.47910E+01 -1.26397E+01 -1.26077E+01 -1.39456E+01 -1.23056E+01 -1.38421E+01 -1.53274E+01 -1.60098E+01 -1.59376E+01 -1.28297E+01
  -1.57180E+01 -1.45314E+01 -1.80586E+01 -1.84932E+01 -2.01316E+01 -1.51129E+01 -1.68495E+01 -1.65246E+01 -1.78111E+01 -1.66810E+01
  -1.21990E+01 -1.35150E+01 -1.20919E+01 -1.34322E+01 -1.49759E+01 -1.29204E+01 -1.16307E+01 -9.53399E+00 -1.16822E+01 -7.87300E+00
  -7.82998E+00 -9.81946E+00 -8.86884E+00 -5.47864E+00 -8.06333E+00 -6.22100E+00 -6.22530E+00 -9.79358E+00 -7.02634E+00 -7.48514E+00
  -8.12218E+00 -8.61640E+00 -8.44895E+00 -8.17714E+00 -1.01226E+01 -1.15310E+01 -9.15524E+00 -1.26382E+01 -8.63664E+00 -1.22629E+01
  -7.57449E+00 -1.04697E+01 -1.22299E+01 -1.16686E+01 -1.04354E+01 -1.10947E+01 -1.11131E+01 -1.07443E+01 -1.29171E+01 -8.43913E+00
  -1.11389E+01 -1.22124E+01 -1.05642E+01 -1.10384E+01 -1.29480E+01 -1.35404E+01 -1.07090E+01 -9.84399E+00 -1.09976E+01 -9.93536E+00
  -1.16193E+01 -8.71603E+00 -1.27390E+01 -1.15689E+01 -9.31189E+00 -1.19530E+01 -8.25769E+00 -8.05950E+00 -6.83654E+00 -1.10710E+01
  -8.61249E+00 -7.76579E+00 -9.74019E+00 -9.77659E+00 -1.08007E+01 -7.61754E+00 -1.07380E+01 -7.18848E+00 -8.41858E+00 -7.53120E+00
  -7.25297E+00 -6.31618E+00 -4.47099E+00 -6.21763E+00 -8.82828E+00 -7.49665E+00 -6.37137E+00 -9.08053E+00 -5.87063E+00 -7.05945E+00
  -8.39856E+00 -7.22298E+00 -7.92944E+00 -7.50103E+00 -8.09288E+00 -4.54296E+00 -5.25230E+00 -5.44046E+00 -4.76700E+00 -6.39478E+00
  -9.71016E+00 -9.24632E+00 -2.53213E+00 -5.91598E+00 -4.35004E+00 -7.24693E+00 -3.98293E+00 -6.85149E+00 -6.42308E+00 -5.86484E+00
  -1.60230E+00 -6.11615E+00 -5.66796E+00 -5.06517E+00 -3.26734E+00 -3.36328E+00 -3.42055E+00 -4.68125E+00
 NY points of the fit to the data follow
  -2.98675E+02 -2.95613E+02 -2.92752E+02 -2.88939E+02 -2.85613E+02 -2.81564E+02 -2.77981E+02 -2.73860E+02 -2.70106E+02 -2.66444E+02
  -2.62982E+02 -2.60795E+02 -2.57967E+02 -2.56879E+02 -2.54626E+02 -2.53841E+02 -2.51924E+02 -2.50956E+02 -2.48912E+02 -2.46602E+02
  -2.44128E+02 -2.41315E+02 -2.38684E+02 -2.34892E+02 -2.32082E+02 -2.27723E+02 -2.24922E+02 -2.19733E+02 -2.16603E+02 -2.11602E+02
  -2.09100E+02 -2.06063E+02 -2.04878E+02 -2.03645E+02 -2.02675E+02 -2.01443E+02 -2.00207E+02 -1.98548E+02 -1.96015E+02 -1.93666E+02
  -1.90590E+02 -1.88436E+02 -1.85388E+02 -1.83460E+02 -1.80798E+02 -1.79307E+02 -1.77604E+02 -1.76768E+02 -1.75734E+02 -1.75248E+02
  -1.74277E+02 -1.73438E+02 -1.72247E+02 -1.70928E+02 -1.69515E+02 -1.67897E+02 -1.66476E+02 -1.64862E+02 -1.63709E+02 -1.62061E+02
  -1.61164E+02 -1.59500E+02 -1.58447E+02 -1.56527E+02 -1.55263E+02 -1.53225E+02 -1.51868E+02 -1.49753E+02 -1.48576E+02 -1.46535E+02
  -1.45662E+02 -1.43898E+02 -1.43111E+02 -1.41533E+02 -1.40254E+02 -1.38792E+02 -1.37531E+02 -1.36136E+02 -1.34734E+02 -1.33390E+02
  -1.32128E+02 -1.30751E+02 -1.29560E+02 -1.28076E+02 -1.27165E+02 -1.25734E+02 -1.25597E+02 -1.24096E+02 -1.24284E+02 -1.22657E+02
  -1.22215E+02 -1.18854E+02 -1.17814E+02 -1.14241E+02 -1.12786E+02 -1.08245E+02 -1.06515E+02 -1.01767E+02 -9.98823E+01 -9.48633E+01
  -9.30974E+01 -8.87703E+01 -8.81681E+01 -8.70172E+01 -8.79605E+01 -8.92766E+01 -9.07914E+01 -9.26454E+01 -9.39118E+01 -9.53701E+01
  -9.61410E+01 -9.70888E+01 -9.74864E+01 -9.82232E+01 -9.79171E+01 -9.70114E+01 -9.60430E+01 -9.41551E+01 -9.25095E+01 -8.89944E+01
  -8.70674E+01 -8.32188E+01 -8.12632E+01 -7.71057E+01 -7.56375E+01 -7.21047E+01 -7.17293E+01 -7.05788E+01 -7.13463E+01 -7.20098E+01
  -7.32321E+01 -7.42336E+01 -7.55150E+01 -7.62302E+01 -7.75223E+01 -7.78221E+01 -7.89532E+01 -7.88146E+01 -7.95161E+01 -7.86729E+01
  -7.90197E+01 -7.75869E+01 -7.77975E+01 -7.62674E+01 -7.64987E+01 -7.53779E+01 -7.54984E+01 -7.46412E+01 -7.45931E+01 -7.39444E+01
  -7.37592E+01 -7.32564E+01 -7.30031E+01 -7.26566E+01 -7.23410E+01 -7.20630E+01 -7.16118E+01 -7.13052E+01 -7.08189E+01 -7.05006E+01
  -7.00218E+01 -6.96016E+01 -6.91865E+01 -6.87160E+01 -6.85026E+01 -6.80778E+01 -6.78826E+01 -6.75188E+01 -6.73357E+01 -6.70528E+01
  -6.67651E+01 -6.64871E+01 -6.61290E+01 -6.58972E+01 -6.55279E+01 -6.53661E+01 -6.47870E+01 -6.46236E+01 -6.39343E+01 -6.36631E+01
  -6.27850E+01 -6.22660E+01 -6.13899E+01 -6.06885E+01 -5.98321E+01 -5.90205E+01 -5.82670E+01 -5.74549E+01 -5.67237E+01 -5.57587E+01
  -5.52000E+01 -5.43708E+01 -5.39916E+01 -5.31431E+01 -5.27205E+01 -5.19267E+01 -5.12342E+01 -5.04855E+01 -4.98263E+01 -4.87839E+01
  -4.82300E+01 -4.75100E+01 -4.77485E+01 -4.72438E+01 -4.77155E+01 -4.76761E+01 -4.81801E+01 -4.79357E+01 -4.77145E+01 -4.70457E+01
  -4.58399E+01 -4.51868E+01 -4.31102E+01 -4.30256E+01 -4.12370E+01 -4.19864E+01 -4.08780E+01 -4.17768E+01 -4.12245E+01 -4.16421E+01
  -4.10814E+01 -4.06877E+01 -3.96445E+01 -3.87615E+01 -3.80347E+01 -3.70011E+01 -3.66056E+01 -3.55480E+01 -3.55830E+01 -3.43987E+01
  -3.45336E+01 -3.32800E+01 -3.32769E+01 -3.19146E+01 -3.20257E+01 -3.07170E+01 -3.07707E+01 -3.00397E+01 -3.02947E+01 -3.03465E+01
  -3.04073E+01 -3.09949E+01 -3.04399E+01 -3.07177E+01 -2.95468E+01 -2.91372E+01 -2.75984E+01 -2.62768E+01 -2.26018E+01 -2.04144E+01
  -1.66659E+01 -1.39323E+01 -9.00681E+00 -5.74896E+00 -1.12442E+00  2.24828E+00  6.40766E+00  9.42539E+00  1.20301E+01  1.36023E+01
   1.18428E+01  1.13872E+01  6.62384E+00  5.01749E+00 -1.30159E-01 -1.81259E+00 -6.08584E+00 -7.39964E+00 -1.05763E+01 -1.15513E+01
  -1.40981E+01 -1.48267E+01 -1.65910E+01 -1.69914E+01 -1.77188E+01 -1.77282E+01 -1.76039E+01 -1.74293E+01 -1.72691E+01 -1.71126E+01
  -1.69202E+01 -1.67503E+01 -1.65262E+01 -1.63219E+01 -1.60778E+01 -1.58481E+01 -1.55996E+01 -1.53397E+01 -1.50687E+01 -1.47608E+01
  -1.44420E+01 -1.40676E+01 -1.36857E+01 -1.32313E+01 -1.27672E+01 -1.22258E+01 -1.16649E+01 -1.10301E+01 -1.03666E+01 -9.63896E+00
  -8.88377E+00 -8.08040E+00 -7.26102E+00 -6.41907E+00 -5.58063E+00 -4.74947E+00 -3.94459E+00 -3.17593E+00 -2.45518E+00 -1.79098E+00
  -1.18971E+00 -6.54386E-01 -1.85717E-01  2.18470E-01  5.62353E-01  8.51063E-01  1.09068E+00  1.28642E+00  1.44286E+00  1.56252E+00
   1.64572E+00  1.69028E+00  1.69179E+00  1.64389E+00  1.53927E+00  1.37000E+00  1.12900E+00  8.10413E-01  4.11207E-01 -6.86411E-02
  -6.24736E-01 -1.24813E+00 -1.92340E+00 -2.62553E+00 -3.30549E+00 -3.87890E+00 -4.61161E+00 -5.40759E+00 -6.11462E+00 -6.97297E+00
  -7.67623E+00 -8.86211E+00 -9.56527E+00 -1.07484E+01 -1.12289E+01 -1.26828E+01 -1.31005E+01 -1.47823E+01 -1.48608E+01 -1.63143E+01
  -1.59676E+01 -1.67742E+01 -1.59884E+01 -1.62189E+01 -1.51396E+01 -1.53694E+01 -1.44686E+01 -1.49143E+01 -1.43586E+01 -1.48129E+01
  -1.45025E+01 -1.48178E+01 -1.46559E+01 -1.48604E+01 -1.48143E+01 -1.50726E+01 -1.51399E+01 -1.54041E+01 -1.55414E+01 -1.57379E+01
  -1.58674E+01 -1.59534E+01 -1.60166E+01 -1.60635E+01 -1.60967E+01 -1.61165E+01 -1.61225E+01 -1.61139E+01 -1.60894E+01 -1.60476E+01
  -1.59867E+01 -1.59050E+01 -1.58005E+01 -1.56713E+01 -1.55155E+01 -1.53311E+01 -1.51161E+01 -1.48690E+01 -1.45883E+01 -1.42732E+01
  -1.39235E+01 -1.35400E+01 -1.31242E+01 -1.26790E+01 -1.22089E+01 -1.17193E+01 -1.12176E+01 -1.07120E+01 -1.02122E+01 -9.72856E+00
  -9.27191E+00 -8.85310E+00 -8.48239E+00 -8.16893E+00 -7.92029E+00 -7.74202E+00 -7.63732E+00 -7.60677E+00 -7.64835E+00 -7.75752E+00
  -7.92753E+00 -8.14975E+00 -8.41418E+00 -8.70995E+00 -9.02590E+00 -9.35112E+00 -9.67543E+00 -9.98973E+00 -1.02863E+01 -1.05590E+01
  -1.08031E+01 -1.10155E+01 -1.11947E+01 -1.13403E+01 -1.14529E+01 -1.15341E+01 -1.15857E+01 -1.16104E+01 -1.16108E+01 -1.15897E+01
  -1.15497E+01 -1.14933E+01 -1.14230E+01 -1.13408E+01 -1.12487E+01 -1.11483E+01 -1.10410E+01 -1.09281E+01 -1.08106E+01 -1.06895E+01
  -1.05655E+01 -1.04392E+01 -1.03113E+01 -1.01822E+01 -1.00523E+01 -9.92202E+00 -9.79166E+00 -9.66146E+00 -9.53171E+00 -9.40260E+00
  -9.27439E+00 -9.14725E+00 -9.02137E+00 -8.89684E+00 -8.77369E+00 -8.65190E+00 -8.53147E+00 -8.41238E+00 -8.29458E+00 -8.17804E+00
  -8.06271E+00 -7.94858E+00 -7.83560E+00 -7.72372E+00 -7.61288E+00 -7.50304E+00 -7.39413E+00 -7.28613E+00 -7.17898E+00 -7.07262E+00
  -6.96696E+00 -6.86197E+00 -6.75758E+00 -6.65375E+00 -6.55041E+00 -6.44749E+00 -6.34491E+00 -6.24262E+00 -6.14057E+00 -6.03869E+00
  -5.93691E+00 -5.83514E+00 -5.73332E+00 -5.63138E+00 -5.52927E+00 -5.42691E+00 -5.32421E+00 -5.22109E+00 -5.11746E+00 -5.01327E+00
  -4.90844E+00 -4.80286E+00 -4.69643E+00 -4.58905E+00 -4.48062E+00 -4.37105E+00 -4.26021E+00 -4.14795E+00
 NY background values follow
    -3.085E+02   -3.058E+02   -3.030E+02   -3.003E+02   -2.976E+02   -2.949E+02   -2.922E+02   -2.895E+02   -2.868E+02   -2.841E+02
    -2.815E+02   -2.788E+02   -2.761E+02   -2.735E+02   -2.709E+02   -2.682E+02   -2.656E+02   -2.630E+02   -2.604E+02   -2.579E+02
    -2.553E+02   -2.528E+02   -2.502E+02   -2.477E+02   -2.452E+02   -2.427E+02   -2.403E+02   -2.378E+02   -2.354E+02   -2.330E+02
    -2.306E+02   -2.282E+02   -2.259E+02   -2.235E+02   -2.212E+02   -2.189E+02   -2.166E+02   -2.144E+02   -2.122E+02   -2.100E+02
    -2.078E+02   -2.056E+02   -2.035E+02   -2.014E+02   -1.993E+02   -1.972E+02   -1.952E+02   -1.932E+02   -1.912E+02   -1.893E+02
    -1.874E+02   -1.855E+02   -1.836E+02   -1.818E+02   -1.799E+02   -1.781E+02   -1.764E+02   -1.746E+02   -1.729E+02   -1.712E+02
    -1.695E+02   -1.678E+02   -1.662E+02   -1.646E+02   -1.630E+02   -1.614E+02   -1.598E+02   -1.583E+02   -1.568E+02   -1.553E+02
    -1.538E+02   -1.523E+02   -1.509E+02   -1.494E+02   -1.480E+02   -1.466E+02   -1.452E+02   -1.439E+02   -1.425E+02   -1.412E+02
    -1.399E+02   -1.386E+02   -1.373E+02   -1.360E+02   -1.347E+02   -1.335E+02   -1.323E+02   -1.310E+02   -1.298E+02   -1.286E+02
    -1.274E+02   -1.263E+02   -1.251E+02   -1.239E+02   -1.228E+02   -1.217E+02   -1.205E+02   -1.194E+02   -1.183E+02   -1.172E+02
    -1.161E+02   -1.151E+02   -1.140E+02   -1.130E+02   -1.119E+02   -1.109E+02   -1.099E+02   -1.089E+02   -1.079E+02   -1.069E+02
    -1.059E+02   -1.050E+02   -1.040E+02   -1.031E+02   -1.021E+02   -1.012E+02   -1.003E+02   -9.937E+01   -9.847E+01   -9.759E+01
    -9.671E+01   -9.585E+01   -9.499E+01   -9.415E+01   -9.331E+01   -9.248E+01   -9.166E+01   -9.086E+01   -9.006E+01   -8.927E+01
    -8.849E+01   -8.772E+01   -8.696E+01   -8.621E+01   -8.547E+01   -8.474E+01   -8.402E+01   -8.330E+01   -8.260E+01   -8.190E+01
    -8.122E+01   -8.054E+01   -7.987E+01   -7.921E+01   -7.856E+01   -7.791E+01   -7.727E+01   -7.664E+01   -7.602E+01   -7.541E+01
    -7.480E+01   -7.420E+01   -7.361E+01   -7.302E+01   -7.244E+01   -7.187E+01   -7.130E+01   -7.074E+01   -7.019E+01   -6.964E+01
    -6.910E+01   -6.856E+01   -6.803E+01   -6.751E+01   -6.699E+01   -6.647E+01   -6.596E+01   -6.546E+01   -6.496E+01   -6.446E+01
    -6.397E+01   -6.348E+01   -6.300E+01   -6.252E+01   -6.204E+01   -6.157E+01   -6.110E+01   -6.064E+01   -6.018E+01   -5.972E+01
    -5.926E+01   -5.881E+01   -5.836E+01   -5.791E+01   -5.746E+01   -5.702E+01   -5.658E+01   -5.614E+01   -5.570E+01   -5.527E+01
    -5.483E+01   -5.440E+01   -5.397E+01   -5.354E+01   -5.312E+01   -5.269E+01   -5.227E+01   -5.184E+01   -5.142E+01   -5.100E+01
    -5.058E+01   -5.016E+01   -4.974E+01   -4.932E+01   -4.890E+01   -4.849E+01   -4.807E+01   -4.765E+01   -4.723E+01   -4.681E+01
    -4.640E+01   -4.598E+01   -4.556E+01   -4.514E+01   -4.472E+01   -4.430E+01   -4.388E+01   -4.346E+01   -4.303E+01   -4.261E+01
    -4.218E+01   -4.176E+01   -4.133E+01   -4.090E+01   -4.047E+01   -4.003E+01   -3.960E+01   -3.916E+01   -3.872E+01   -3.828E+01
    -3.784E+01   -3.740E+01   -3.696E+01   -3.651E+01   -3.607E+01   -3.562E+01   -3.518E+01   -3.474E+01   -3.429E+01   -3.385E+01
    -3.341E+01   -3.297E+01   -3.253E+01   -3.209E+01   -3.165E+01   -3.121E+01   -3.078E+01   -3.035E+01   -2.992E+01   -2.950E+01
    -2.908E+01   -2.866E+01   -2.824E+01   -2.783E+01   -2.742E+01   -2.701E+01   -2.661E+01   -2.622E+01   -2.583E+01   -2.544E+01
    -2.506E+01   -2.468E+01   -2.431E+01   -2.394E+01   -2.358E+01   -2.323E+01   -2.288E+01   -2.254E+01   -2.221E+01   -2.188E+01
    -2.156E+01   -2.125E+01   -2.094E+01   -2.064E+01   -2.035E+01   -2.007E+01   -1.979E+01   -1.953E+01   -1.926E+01   -1.901E+01
    -1.876E+01   -1.853E+01   -1.829E+01   -1.807E+01   -1.785E+01   -1.764E+01   -1.744E+01   -1.724E+01   -1.706E+01   -1.688E+01
    -1.670E+01   -1.653E+01   -1.637E+01   -1.622E+01   -1.607E+01   -1.594E+01   -1.580E+01   -1.568E+01   -1.556E+01   -1.545E+01
    -1.534E+01   -1.525E+01   -1.516E+01   -1.507E+01   -1.499E+01   -1.492E+01   -1.486E+01   -1.480E+01   -1.475E+01   -1.471E+01
    -1.467E+01   -1.464E+01   -1.462E+01   -1.460E+01   -1.459E+01   -1.458E+01   -1.459E+01   -1.459E+01   -1.461E+01   -1.463E+01
    -1.466E+01   -1.469E+01   -1.473E+01   -1.477E+01   -1.482E+01   -1.487E+01   -1.492E+01   -1.498E+01   -1.505E+01   -1.511E+01
    -1.518E+01   -1.526E+01   -1.533E+01   -1.541E+01   -1.549E+01   -1.557E+01   -1.566E+01   -1.574E+01   -1.583E+01   -1.592E+01
    -1.601E+01   -1.609E+01   -1.618E+01   -1.627E+01   -1.636E+01   -1.645E+01   -1.654E+01   -1.662E+01   -1.671E+01   -1.679E+01
    -1.687E+01   -1.695E+01   -1.703E+01   -1.710E+01   -1.717E+01   -1.724E+01   -1.731E+01   -1.737E+01   -1.743E+01   -1.748E+01
    -1.753E+01   -1.757E+01   -1.761E+01   -1.765E+01   -1.768E+01   -1.770E+01   -1.772E+01   -1.774E+01   -1.775E+01   -1.775E+01
    -1.776E+01   -1.775E+01   -1.775E+01   -1.773E+01   -1.772E+01   -1.770E+01   -1.767E+01   -1.765E+01   -1.761E+01   -1.758E+01
    -1.754E+01   -1.749E+01   -1.744E+01   -1.739E+01   -1.734E+01   -1.728E+01   -1.721E+01   -1.715E+01   -1.708E+01   -1.700E+01
    -1.693E+01   -1.685E+01   -1.676E+01   -1.668E+01   -1.659E+01   -1.650E+01   -1.640E+01   -1.630E+01   -1.620E+01   -1.610E+01
    -1.599E+01   -1.588E+01   -1.577E+01   -1.566E+01   -1.554E+01   -1.542E+01   -1.530E+01   -1.517E+01   -1.505E+01   -1.492E+01
    -1.479E+01   -1.465E+01   -1.452E+01   -1.438E+01   -1.425E+01   -1.411E+01   -1.397E+01   -1.382E+01   -1.368E+01   -1.353E+01
    -1.339E+01   -1.324E+01   -1.309E+01   -1.294E+01   -1.280E+01   -1.264E+01   -1.249E+01   -1.234E+01   -1.219E+01   -1.204E+01
    -1.189E+01   -1.174E+01   -1.158E+01   -1.143E+01   -1.128E+01   -1.113E+01   -1.098E+01   -1.083E+01   -1.068E+01   -1.053E+01
    -1.038E+01   -1.023E+01   -1.009E+01   -9.942E+00   -9.797E+00   -9.655E+00   -9.513E+00   -9.373E+00   -9.234E+00   -9.097E+00
    -8.962E+00   -8.829E+00   -8.697E+00   -8.568E+00   -8.440E+00   -8.315E+00   -8.191E+00   -8.069E+00   -7.948E+00   -7.829E+00
    -7.712E+00   -7.596E+00   -7.481E+00   -7.368E+00   -7.256E+00   -7.146E+00   -7.036E+00   -6.928E+00   -6.820E+00   -6.714E+00
    -6.608E+00   -6.503E+00   -6.399E+00   -6.296E+00   -6.193E+00   -6.091E+00   -5.989E+00   -5.888E+00   -5.787E+00   -5.687E+00
    -5.586E+00   -5.486E+00   -5.386E+00   -5.286E+00   -5.186E+00   -5.086E+00   -4.985E+00   -4.885E+00   -4.784E+00   -4.683E+00
    -4.581E+00   -4.479E+00   -4.376E+00   -4.273E+00   -4.169E+00   -4.065E+00   -3.959E+00   -3.853E+00
 Cr       Conc. = 9.22E+02
