 LCModel (Version 6.3-1L) Copyright: S.W. Provencher.          Ref.: Magn. Reson. Med. 30:672-679 (1993).                
 Slice#2 Row#9 Col#11  K_02_press_1_raw_act
 36 lines in following concentration table = NCONC+1
    Conc.  %SD /Cr+PCr  Metabolite                                         
  248.066  45%   0.150 Ala                                                 
    0.000 999%   0.000 Asp                                                 
    0.000 999%   0.000 Cr                                                  
 1.65E+03   4%   1.000 PCr                                                 
    0.000 999%   0.000 GABA                                                
   56.239 327% 3.4E-02 Glc                                                 
  700.491  32%   0.423 Gln                                                 
 1.83E+03  14%   1.105 Glu                                                 
  564.364   5%   0.341 GPC                                                 
    0.000 999%   0.000 PCh                                                 
  316.081  25%   0.191 GSH                                                 
  902.045  30%   0.545 Ins                                                 
   59.212 201% 3.6E-02 Lac                                                 
 3.28E+03   5%   1.981 NAA                                                 
  633.699  25%   0.383 NAAG                                                
  115.489  27% 7.0E-02 Scyllo                                              
    0.000 999%   0.000 Tau                                                 
 1.19E+03  10%   0.719 -CrCH2                                              
  564.364   5%   0.341 GPC+PCh                                             
 3.91E+03   3%   2.364 NAA+NAAG                                            
 1.65E+03   4%   1.000 Cr+PCr                                              
 2.53E+03  14%   1.528 Glu+Gln                                             
 2.92E+03  32%   1.765 Lip13a                                              
    0.000 999%   0.000 Lip13b                                              
  563.325  67%   0.340 Lip09                                               
 1.74E+03  25%   1.051 MM09                                                
  602.336  41%   0.364 Lip20                                               
 3.88E+03  14%   2.343 MM20                                                
  530.215  55%   0.320 MM12                                                
 2.69E+03  24%   1.628 MM14                                                
  916.675  37%   0.554 MM17                                                
 2.92E+03  32%   1.765 Lip13a+Lip13b                                       
 6.14E+03  11%   3.714 MM14+Lip13a+Lip13b+MM12                             
 2.30E+03  13%   1.391 MM09+Lip09                                          
 4.48E+03  12%   2.707 MM20+Lip20                                          
   6 lines in following misc. output table
  FWHM = 0.038 ppm    S/N =  18                                            
  Data shift = 0.000 ppm                                                   
  Ph: -32 deg     -15.9 deg/ppm                                            
  alphaB,S = 6.4E-01,   8.8E+01                                            
   14 spline knots.   Ns = 6(1)                                            
  ( 5) 3 infls.   ( 3) 1 extrs.                                            
  498 points on ppm-axis = NY
      4.000000     3.992357     3.984714     3.977070     3.969427     3.961784     3.954141     3.946497     3.938854     3.931211
      3.923568     3.915925     3.908281     3.900638     3.892995     3.885352     3.877708     3.870065     3.862422     3.854779
      3.847136     3.839492     3.831849     3.824206     3.816563     3.808919     3.801276     3.793633     3.785990     3.778347
      3.770703     3.763060     3.755417     3.747774     3.740130     3.732487     3.724844     3.717201     3.709558     3.701914
      3.694271     3.686628     3.678985     3.671341     3.663698     3.656055     3.648412     3.640769     3.633125     3.625482
      3.617839     3.610196     3.602552     3.594909     3.587266     3.579623     3.571980     3.564336     3.556693     3.549050
      3.541407     3.533763     3.526120     3.518477     3.510834     3.503191     3.495547     3.487904     3.480261     3.472618
      3.464974     3.457331     3.449688     3.442045     3.434402     3.426758     3.419115     3.411472     3.403829     3.396185
      3.388542     3.380899     3.373256     3.365613     3.357969     3.350326     3.342683     3.335040     3.327396     3.319753
      3.312110     3.304467     3.296824     3.289180     3.281537     3.273894     3.266251     3.258607     3.250964     3.243321
      3.235678     3.228034     3.220391     3.212748     3.205105     3.197462     3.189818     3.182175     3.174532     3.166889
      3.159245     3.151602     3.143959     3.136316     3.128673     3.121029     3.113386     3.105743     3.098100     3.090456
      3.082813     3.075170     3.067527     3.059884     3.052240     3.044597     3.036954     3.029311     3.021667     3.014024
      3.006381     2.998738     2.991095     2.983451     2.975808     2.968165     2.960522     2.952878     2.945235     2.937592
      2.929949     2.922306     2.914662     2.907019     2.899376     2.891733     2.884089     2.876446     2.868803     2.861160
      2.853517     2.845873     2.838230     2.830587     2.822944     2.815300     2.807657     2.800014     2.792371     2.784728
      2.777084     2.769441     2.761798     2.754155     2.746511     2.738868     2.731225     2.723582     2.715939     2.708295
      2.700652     2.693009     2.685366     2.677722     2.670079     2.662436     2.654793     2.647150     2.639506     2.631863
      2.624220     2.616577     2.608933     2.601290     2.593647     2.586004     2.578361     2.570717     2.563074     2.555431
      2.547788     2.540144     2.532501     2.524858     2.517215     2.509572     2.501928     2.494285     2.486642     2.478999
      2.471355     2.463712     2.456069     2.448426     2.440783     2.433139     2.425496     2.417853     2.410210     2.402566
      2.394923     2.387280     2.379637     2.371994     2.364350     2.356707     2.349064     2.341421     2.333777     2.326134
      2.318491     2.310848     2.303205     2.295561     2.287918     2.280275     2.272632     2.264988     2.257345     2.249702
      2.242059     2.234416     2.226772     2.219129     2.211486     2.203843     2.196199     2.188556     2.180913     2.173270
      2.165627     2.157983     2.150340     2.142697     2.135054     2.127410     2.119767     2.112124     2.104481     2.096838
      2.089194     2.081551     2.073908     2.066265     2.058621     2.050978     2.043335     2.035692     2.028049     2.020405
      2.012762     2.005119     1.997476     1.989833     1.982190     1.974546     1.966903     1.959260     1.951617     1.943974
      1.936331     1.928688     1.921045     1.913402     1.905759     1.898115     1.890472     1.882829     1.875186     1.867543
      1.859900     1.852257     1.844614     1.836971     1.829327     1.821684     1.814041     1.806398     1.798755     1.791112
      1.783469     1.775826     1.768183     1.760540     1.752896     1.745253     1.737610     1.729967     1.722324     1.714681
      1.707038     1.699395     1.691752     1.684108     1.676465     1.668822     1.661179     1.653536     1.645893     1.638250
      1.630607     1.622964     1.615321     1.607677     1.600034     1.592391     1.584748     1.577105     1.569462     1.561819
      1.554176     1.546533     1.538890     1.531246     1.523603     1.515960     1.508317     1.500674     1.493031     1.485388
      1.477745     1.470102     1.462458     1.454815     1.447172     1.439529     1.431886     1.424243     1.416600     1.408957
      1.401314     1.393671     1.386027     1.378384     1.370741     1.363098     1.355455     1.347812     1.340169     1.332526
      1.324883     1.317240     1.309596     1.301953     1.294310     1.286667     1.279024     1.271381     1.263738     1.256095
      1.248452     1.240808     1.233165     1.225522     1.217879     1.210236     1.202593     1.194950     1.187307     1.179664
      1.172021     1.164377     1.156734     1.149091     1.141448     1.133805     1.126162     1.118519     1.110876     1.103233
      1.095590     1.087946     1.080303     1.072660     1.065017     1.057374     1.049731     1.042088     1.034445     1.026802
      1.019158     1.011515     1.003872     0.996229     0.988586     0.980943     0.973300     0.965657     0.958014     0.950371
      0.942727     0.935084     0.927441     0.919798     0.912155     0.904512     0.896869     0.889226     0.881583     0.873940
      0.866296     0.858653     0.851010     0.843367     0.835724     0.828081     0.820438     0.812795     0.805152     0.797508
      0.789865     0.782222     0.774579     0.766936     0.759293     0.751650     0.744007     0.736364     0.728721     0.721077
      0.713434     0.705791     0.698148     0.690505     0.682862     0.675219     0.667576     0.659933     0.652290     0.644646
      0.637003     0.629360     0.621717     0.614074     0.606431     0.598788     0.591145     0.583502     0.575858     0.568215
      0.560572     0.552929     0.545286     0.537643     0.530000     0.522357     0.514714     0.507071     0.499427     0.491784
      0.484141     0.476498     0.468855     0.461212     0.453569     0.445925     0.438282     0.430639     0.422996     0.415353
      0.407710     0.400067     0.392424     0.384780     0.377137     0.369494     0.361851     0.354208     0.346565     0.338922
      0.331278     0.323635     0.315992     0.308349     0.300706     0.293063     0.285420     0.277777     0.270133     0.262490
      0.254847     0.247204     0.239561     0.231918     0.224275     0.216631     0.208988     0.201345
 NY phased data points follow
   2.25774E+01  2.27626E+01  2.13943E+01  1.71586E+01  2.12579E+01  2.33269E+01  2.03690E+01  2.45545E+01  2.54432E+01  2.99551E+01
   3.51644E+01  3.38066E+01  2.93948E+01  2.57257E+01  2.62707E+01  2.46333E+01  2.29140E+01  1.89863E+01  1.89514E+01  1.82955E+01
   1.58081E+01  2.01228E+01  1.99727E+01  2.07011E+01  2.24882E+01  2.12246E+01  2.33432E+01  2.28829E+01  1.98153E+01  2.31993E+01
   2.12578E+01  1.95416E+01  2.15675E+01  2.10568E+01  2.12755E+01  2.21433E+01  1.75043E+01  2.03172E+01  2.06320E+01  2.32331E+01
   2.19114E+01  2.15588E+01  2.09610E+01  2.43925E+01  2.14169E+01  2.30651E+01  2.65232E+01  2.65976E+01  2.95662E+01  2.86072E+01
   2.36453E+01  2.30736E+01  2.03716E+01  2.09063E+01  2.11004E+01  2.41174E+01  2.09928E+01  2.40068E+01  1.87397E+01  2.39134E+01
   1.41906E+01  1.52145E+01  1.26787E+01  1.08931E+01  1.12153E+01  9.97047E+00  1.05582E+01  8.20486E+00  6.46517E+00  7.86880E+00
   8.69620E+00  1.01968E+01  1.21791E+01  1.00903E+01  1.37095E+01  1.29782E+01  1.17589E+01  1.27482E+01  1.35595E+01  1.29437E+01
   1.06633E+01  1.10722E+01  1.20710E+01  1.46886E+01  1.38827E+01  1.35991E+01  1.39990E+01  1.52498E+01  1.25022E+01  1.48817E+01
   1.85198E+01  1.62678E+01  1.65017E+01  1.68131E+01  1.58982E+01  1.79939E+01  1.96548E+01  2.35685E+01  1.92991E+01  2.21192E+01
   2.86401E+01  4.36771E+01  6.10594E+01  7.35094E+01  7.10258E+01  6.00229E+01  4.74230E+01  3.56308E+01  2.82157E+01  2.11122E+01
   1.82279E+01  1.75198E+01  1.25210E+01  1.34480E+01  8.83525E+00  9.01437E+00  1.31917E+01  1.33163E+01  1.35293E+01  1.75201E+01
   1.70005E+01  1.65464E+01  1.99639E+01  2.07723E+01  2.56150E+01  4.07050E+01  6.17904E+01  7.84081E+01  7.46723E+01  6.84408E+01
   5.34342E+01  3.82185E+01  3.31685E+01  2.55710E+01  2.10403E+01  1.31583E+01  1.34512E+01  1.18114E+01  1.03485E+01  1.51025E+01
   1.05238E+01  1.20297E+01  1.27135E+01  1.14681E+01  1.31650E+01  1.40448E+01  1.26255E+01  1.01541E+01  1.16827E+01  1.12953E+01
   1.20437E+01  1.06724E+01  8.76275E+00  1.15586E+01  1.35041E+01  9.86546E+00  8.43198E+00  7.11559E+00  1.13697E+01  1.30907E+01
   1.30058E+01  7.82753E+00  6.14501E+00  3.59774E+00  4.22997E+00  4.42354E+00  6.66389E+00  4.22412E+00 -1.89846E+00 -8.33941E+00
  -7.84147E+00 -8.94307E+00 -9.84337E+00 -1.00491E+01 -1.00336E+01 -1.21273E+01 -2.06735E+01 -1.87788E+01 -1.48429E+01 -6.18033E+00
  -4.26175E+00 -4.28073E+00 -5.86497E+00 -6.95112E+00 -4.83888E+00 -4.44589E+00 -6.78408E+00 -7.24308E+00 -7.85934E+00 -4.85621E+00
  -3.42083E+00  4.14915E+00  6.35683E+00  5.18491E+00  3.60532E+00  1.83853E+00  2.53146E-01 -4.43462E+00 -9.51916E+00 -1.05893E+01
  -6.04825E+00  2.18409E-01  1.90236E+00  6.01537E+00  1.07032E+01  1.12722E+01  7.98194E+00  6.29957E+00 -1.68448E-01  4.75170E+00
   9.49524E-01  4.74620E+00  7.64664E+00  1.34310E+01  2.08668E+01  2.32348E+01  2.78254E+01  2.68980E+01  2.26865E+01  1.32872E+01
   9.40303E+00  4.19532E+00 -6.51056E-02  8.22321E-01  5.86813E+00  9.13453E+00  1.20375E+01  1.88466E+01  1.95821E+01  1.65604E+01
   1.48099E+01  1.47675E+01  1.46083E+01  1.39639E+01  1.34195E+01  1.35305E+01  1.81479E+01  1.74427E+01  1.27311E+01  1.58226E+01
   1.40624E+01  6.78211E+00  1.02981E+01  6.94815E+00  1.06622E+01  8.93394E+00  1.45165E+01  1.98298E+01  2.20111E+01  2.10239E+01
   2.73615E+01  2.54860E+01  2.22681E+01  2.92602E+01  4.19180E+01  6.53866E+01  7.54148E+01  8.74472E+01  9.73938E+01  1.19065E+02
   1.52348E+02  1.71279E+02  1.42981E+02  9.98486E+01  6.74986E+01  4.96374E+01  3.27837E+01  2.08224E+01  1.44027E+01  1.17310E+01
   1.25668E+01  6.79078E+00  1.22380E+01  1.13185E+01  1.11475E+01  1.07075E+01  7.19421E+00  9.10499E+00  8.84521E+00  1.08047E+01
   9.03861E+00  1.07112E+01  1.12430E+01  1.30409E+01  9.76573E+00  6.93882E+00  6.67801E+00  4.57610E+00  7.62511E+00  8.52534E+00
   8.86242E+00  8.01802E+00  7.53433E+00  1.07027E+01  7.71645E+00  5.92844E+00  4.79024E+00  7.10703E+00  5.25121E+00  5.86244E+00
   1.00460E+01  5.31632E+00  7.62300E+00  7.92941E+00  1.09853E+01  9.03506E+00  1.08235E+01  8.56938E+00  1.18685E+01  1.43101E+01
   9.87886E+00  1.50031E+01  1.56399E+01  1.42093E+01  1.53517E+01  1.31893E+01  1.62282E+01  1.92232E+01  1.81269E+01  1.58985E+01
   1.84156E+01  1.98782E+01  1.71438E+01  1.57215E+01  1.78220E+01  1.43155E+01  1.56378E+01  1.51042E+01  1.82035E+01  1.86425E+01
   1.84899E+01  1.65189E+01  1.66862E+01  1.90037E+01  1.95917E+01  2.50714E+01  2.58445E+01  2.77112E+01  2.52733E+01  2.96880E+01
   2.65667E+01  2.51385E+01  2.53295E+01  2.76865E+01  2.92060E+01  2.78276E+01  3.12619E+01  2.83700E+01  2.61139E+01  2.60850E+01
   2.71178E+01  2.01371E+01  2.53014E+01  2.19313E+01  2.19110E+01  2.17893E+01  2.40103E+01  2.38263E+01  1.64454E+01  2.05764E+01
   1.81677E+01  1.69160E+01  2.16424E+01  1.26811E+01  2.16113E+01  1.85649E+01  1.39876E+01  1.63786E+01  1.83587E+01  1.87256E+01
   1.52221E+01  1.46479E+01  1.99816E+01  1.82640E+01  1.52932E+01  1.50050E+01  1.37021E+01  1.72226E+01  1.41132E+01  1.18168E+01
   1.13621E+01  1.03906E+01  7.31929E+00  1.12620E+01  1.03973E+01  1.07609E+01  1.26164E+01  1.50110E+01  1.17870E+01  1.40653E+01
   1.40178E+01  1.37885E+01  1.60475E+01  1.41067E+01  1.50175E+01  1.85822E+01  2.31959E+01  2.14661E+01  2.30836E+01  1.60090E+01
   1.98088E+01  1.46080E+01  1.72197E+01  1.82292E+01  1.86077E+01  2.13496E+01  1.95563E+01  2.11796E+01  2.04992E+01  1.92203E+01
   1.81774E+01  2.32395E+01  1.99518E+01  2.15246E+01  1.88712E+01  1.67353E+01  1.31478E+01  1.59394E+01  1.61080E+01  1.31174E+01
   1.58311E+01  1.23234E+01  9.08558E+00  1.23628E+01  1.31177E+01  9.94368E+00  9.69938E+00  1.02289E+01  6.70715E+00  9.68206E+00
   1.01676E+01  6.94864E+00  1.12450E+01  6.99536E+00  8.22134E+00  1.04717E+01  7.85853E+00  6.97308E+00  7.20996E+00  8.29695E+00
   1.14140E+01  9.13144E+00  6.94549E+00  5.58820E+00  7.90071E+00  8.07298E+00  7.83606E+00  9.13548E+00  5.72719E+00  8.50572E+00
   5.85844E+00  9.99586E+00  9.01854E+00  8.84614E+00  7.74288E+00  6.11720E+00  7.40727E+00  5.98269E+00  8.04088E+00  9.62694E+00
   8.53882E+00  8.45340E+00  7.50917E+00  8.05563E+00  8.84574E+00  5.06660E+00  6.23037E+00  9.35639E+00  6.16440E+00  6.86107E+00
   6.29015E+00  6.69658E+00  6.31476E+00  8.67492E+00  4.85353E+00  6.71388E+00  6.40982E+00  3.85824E+00  3.91782E+00  5.19212E+00
   1.05432E+01  3.88324E+00  7.05160E+00  6.39564E+00  3.62506E+00  7.38168E+00  8.03261E+00  4.94810E+00  8.15263E+00  6.48221E+00
   4.54412E+00  6.94097E+00  5.14556E+00  6.83663E+00  8.79816E+00  3.37888E+00  3.13323E+00  6.40190E+00
 NY points of the fit to the data follow
   1.93204E+01  1.89235E+01  1.87361E+01  1.90286E+01  2.02529E+01  2.14790E+01  2.26344E+01  2.43806E+01  2.72153E+01  3.07585E+01
   3.33425E+01  3.33739E+01  3.10469E+01  2.80622E+01  2.58034E+01  2.43620E+01  2.32075E+01  2.22304E+01  2.16496E+01  2.12372E+01
   2.09713E+01  2.08426E+01  2.05556E+01  2.02895E+01  2.03607E+01  2.02580E+01  1.97712E+01  1.93364E+01  1.98023E+01  2.16767E+01
   2.43254E+01  2.66484E+01  2.79867E+01  2.82624E+01  2.75097E+01  2.55544E+01  2.26040E+01  1.97696E+01  1.79220E+01  1.70904E+01
   1.72323E+01  1.81606E+01  1.94351E+01  2.05321E+01  2.13703E+01  2.24129E+01  2.39470E+01  2.54385E+01  2.59254E+01  2.49217E+01
   2.29093E+01  2.07406E+01  1.88644E+01  1.74601E+01  1.65908E+01  1.62000E+01  1.61211E+01  1.61941E+01  1.64590E+01  1.69009E+01
   1.72645E+01  1.72124E+01  1.65889E+01  1.55865E+01  1.45429E+01  1.37553E+01  1.33812E+01  1.33680E+01  1.35615E+01  1.38384E+01
   1.41503E+01  1.44473E+01  1.46219E+01  1.45534E+01  1.42416E+01  1.38335E+01  1.34596E+01  1.31541E+01  1.28755E+01  1.26291E+01
   1.25229E+01  1.27627E+01  1.30436E+01  1.32029E+01  1.36208E+01  1.46447E+01  1.60870E+01  1.71030E+01  1.68085E+01  1.52348E+01
   1.33573E+01  1.20156E+01  1.12799E+01  1.08342E+01  1.05601E+01  1.07095E+01  1.21792E+01  1.62118E+01  2.03479E+01  2.43620E+01
   3.15116E+01  4.42881E+01  6.04847E+01  7.24226E+01  7.27727E+01  6.19699E+01  4.72550E+01  3.50461E+01  2.64787E+01  1.98986E+01
   1.50322E+01  1.27720E+01  1.18801E+01  1.13809E+01  1.10348E+01  1.07748E+01  1.05748E+01  1.04187E+01  1.03169E+01  1.03748E+01
   1.13243E+01  1.52567E+01  2.03106E+01  2.47163E+01  3.10981E+01  4.27374E+01  5.90775E+01  7.34660E+01  7.71959E+01  6.81930E+01
   5.30684E+01  3.96819E+01  3.04711E+01  2.35563E+01  1.76265E+01  1.38062E+01  1.17477E+01  1.05501E+01  1.01191E+01  1.02923E+01
   1.07740E+01  1.12603E+01  1.14774E+01  1.13065E+01  1.08631E+01  1.03359E+01  9.83896E+00  9.41580E+00  9.01945E+00  8.64766E+00
   8.32678E+00  8.02098E+00  7.70321E+00  7.38410E+00  7.05244E+00  6.63677E+00  6.40959E+00  6.46160E+00  6.44750E+00  6.01347E+00
   4.80077E+00  3.30497E+00  2.63085E+00  3.22867E+00  4.40684E+00  4.99446E+00  4.36785E+00  2.91221E+00  1.42288E+00  2.53624E-01
  -6.29772E-01 -1.22702E+00 -1.43327E+00 -1.67230E+00 -2.48760E+00 -3.83413E+00 -4.73048E+00 -4.31497E+00 -2.97012E+00 -1.99212E+00
  -2.19917E+00 -3.18597E+00 -3.55887E+00 -2.79037E+00 -1.80521E+00 -1.36160E+00 -1.13384E+00 -3.13058E-01  1.66053E+00  4.32736E+00
   6.65703E+00  7.99412E+00  8.07785E+00  7.34446E+00  6.38561E+00  5.52708E+00  4.96978E+00  4.73871E+00  4.93786E+00  5.58423E+00
   6.72957E+00  8.18889E+00  9.65906E+00  1.08555E+01  1.12583E+01  1.05829E+01  8.40954E+00  4.82650E+00  1.00067E+00 -1.83258E+00
  -2.76268E+00 -1.94524E+00 -4.12778E-02  2.89321E+00  7.15181E+00  1.20622E+01  1.54566E+01  1.53847E+01  1.21481E+01  7.66620E+00
   3.05357E+00 -1.26390E+00 -4.34362E+00 -4.71181E+00 -1.61429E+00  3.47869E+00  8.27701E+00  1.16753E+01  1.36650E+01  1.44772E+01
   1.42130E+01  1.33538E+01  1.26425E+01  1.25673E+01  1.30550E+01  1.38927E+01  1.48740E+01  1.57879E+01  1.64371E+01  1.64720E+01
   1.57302E+01  1.44234E+01  1.31881E+01  1.27930E+01  1.36775E+01  1.55307E+01  1.74838E+01  1.90037E+01  2.00762E+01  2.11740E+01
   2.30636E+01  2.50094E+01  2.71751E+01  3.17080E+01  4.41853E+01  6.20351E+01  7.48773E+01  8.43674E+01  9.96279E+01  1.25744E+02
   1.53391E+02  1.62314E+02  1.42324E+02  1.05617E+02  7.22261E+01  5.00157E+01  3.47528E+01  2.23306E+01  1.50611E+01  1.29684E+01
   1.19236E+01  1.11819E+01  1.07583E+01  1.06035E+01  1.05205E+01  1.03219E+01  9.90246E+00  9.34507E+00  8.80097E+00  8.33775E+00
   7.94373E+00  7.63188E+00  7.45041E+00  7.38806E+00  7.34712E+00  7.25143E+00  7.12332E+00  7.00178E+00  6.89731E+00  6.81818E+00
   6.80187E+00  6.88896E+00  7.07098E+00  7.29063E+00  7.51060E+00  7.72174E+00  7.92903E+00  8.13986E+00  8.35895E+00  8.60733E+00
   8.91522E+00  9.28355E+00  9.68741E+00  1.01019E+01  1.05134E+01  1.09165E+01  1.13026E+01  1.16635E+01  1.20000E+01  1.23152E+01
   1.26098E+01  1.28853E+01  1.31421E+01  1.33834E+01  1.36161E+01  1.38515E+01  1.41007E+01  1.43760E+01  1.46914E+01  1.50699E+01
   1.55553E+01  1.62087E+01  1.68672E+01  1.74302E+01  1.81003E+01  1.89364E+01  1.96555E+01  1.97601E+01  1.89868E+01  1.78600E+01
   1.72119E+01  1.72325E+01  1.77481E+01  1.87078E+01  2.03267E+01  2.26479E+01  2.50196E+01  2.66192E+01  2.72574E+01  2.73127E+01
   2.72222E+01  2.71280E+01  2.69388E+01  2.66950E+01  2.65459E+01  2.64548E+01  2.63198E+01  2.60069E+01  2.54485E+01  2.47796E+01
   2.41751E+01  2.36992E+01  2.33436E+01  2.31080E+01  2.30236E+01  2.30570E+01  2.30270E+01  2.27683E+01  2.22927E+01  2.17132E+01
   2.11133E+01  2.05031E+01  1.98737E+01  1.92546E+01  1.86570E+01  1.80711E+01  1.74947E+01  1.69297E+01  1.63782E+01  1.58446E+01
   1.53331E+01  1.48493E+01  1.43967E+01  1.39787E+01  1.35976E+01  1.32570E+01  1.29600E+01  1.27101E+01  1.25083E+01  1.23563E+01
   1.22548E+01  1.22063E+01  1.22123E+01  1.22746E+01  1.23929E+01  1.25675E+01  1.27983E+01  1.30863E+01  1.34307E+01  1.38301E+01
   1.42805E+01  1.47780E+01  1.53176E+01  1.58935E+01  1.64974E+01  1.71193E+01  1.77466E+01  1.83671E+01  1.89673E+01  1.95337E+01
   2.00514E+01  2.05057E+01  2.08826E+01  2.11710E+01  2.13615E+01  2.14475E+01  2.14241E+01  2.12897E+01  2.10457E+01  2.06983E+01
   2.02553E+01  1.97277E+01  1.91267E+01  1.84658E+01  1.77593E+01  1.70228E+01  1.62705E+01  1.55159E+01  1.47698E+01  1.40430E+01
   1.33442E+01  1.26812E+01  1.20587E+01  1.14800E+01  1.09460E+01  1.04576E+01  1.00141E+01  9.61506E+00  9.25747E+00  8.93852E+00
   8.65452E+00  8.40313E+00  8.18143E+00  7.98704E+00  7.81625E+00  7.66628E+00  7.53421E+00  7.41878E+00  7.31806E+00  7.23064E+00
   7.15398E+00  7.08677E+00  7.02763E+00  6.97650E+00  6.93232E+00  6.89437E+00  6.86098E+00  6.83186E+00  6.80649E+00  6.78533E+00
   6.76756E+00  6.75274E+00  6.73973E+00  6.72881E+00  6.71987E+00  6.71345E+00  6.70869E+00  6.70532E+00  6.70257E+00  6.70109E+00
   6.70086E+00  6.70228E+00  6.70440E+00  6.70712E+00  6.71000E+00  6.71389E+00  6.71868E+00  6.72456E+00  6.73057E+00  6.73679E+00
   6.74308E+00  6.75032E+00  6.75824E+00  6.76684E+00  6.77522E+00  6.78374E+00  6.79243E+00  6.80209E+00  6.81219E+00  6.82266E+00
   6.83275E+00  6.84308E+00  6.85374E+00  6.86537E+00  6.87723E+00  6.88926E+00  6.90095E+00  6.91311E+00  6.92579E+00  6.93938E+00
   6.95305E+00  6.96684E+00  6.98049E+00  6.99492E+00  7.01006E+00  7.02609E+00  7.04215E+00  7.05850E+00
 NY background values follow
     1.869E+01    1.860E+01    1.852E+01    1.843E+01    1.835E+01    1.826E+01    1.818E+01    1.809E+01    1.801E+01    1.792E+01
     1.784E+01    1.775E+01    1.767E+01    1.758E+01    1.750E+01    1.741E+01    1.733E+01    1.724E+01    1.716E+01    1.707E+01
     1.699E+01    1.690E+01    1.682E+01    1.673E+01    1.665E+01    1.657E+01    1.648E+01    1.639E+01    1.631E+01    1.622E+01
     1.614E+01    1.605E+01    1.597E+01    1.588E+01    1.580E+01    1.571E+01    1.563E+01    1.554E+01    1.546E+01    1.537E+01
     1.529E+01    1.520E+01    1.511E+01    1.503E+01    1.494E+01    1.486E+01    1.477E+01    1.468E+01    1.460E+01    1.451E+01
     1.442E+01    1.434E+01    1.425E+01    1.416E+01    1.408E+01    1.399E+01    1.390E+01    1.382E+01    1.373E+01    1.364E+01
     1.356E+01    1.347E+01    1.338E+01    1.329E+01    1.320E+01    1.312E+01    1.303E+01    1.294E+01    1.285E+01    1.276E+01
     1.267E+01    1.259E+01    1.250E+01    1.241E+01    1.232E+01    1.223E+01    1.214E+01    1.205E+01    1.196E+01    1.187E+01
     1.178E+01    1.169E+01    1.160E+01    1.151E+01    1.142E+01    1.133E+01    1.124E+01    1.115E+01    1.105E+01    1.096E+01
     1.087E+01    1.078E+01    1.069E+01    1.059E+01    1.050E+01    1.041E+01    1.032E+01    1.022E+01    1.013E+01    1.004E+01
     9.943E+00    9.850E+00    9.756E+00    9.662E+00    9.568E+00    9.474E+00    9.380E+00    9.285E+00    9.191E+00    9.096E+00
     9.001E+00    8.907E+00    8.812E+00    8.717E+00    8.622E+00    8.526E+00    8.431E+00    8.336E+00    8.240E+00    8.145E+00
     8.049E+00    7.953E+00    7.858E+00    7.762E+00    7.666E+00    7.570E+00    7.474E+00    7.378E+00    7.282E+00    7.186E+00
     7.090E+00    6.994E+00    6.898E+00    6.802E+00    6.706E+00    6.609E+00    6.513E+00    6.417E+00    6.321E+00    6.225E+00
     6.129E+00    6.034E+00    5.938E+00    5.843E+00    5.748E+00    5.654E+00    5.560E+00    5.466E+00    5.373E+00    5.280E+00
     5.188E+00    5.096E+00    5.005E+00    4.915E+00    4.825E+00    4.737E+00    4.649E+00    4.562E+00    4.475E+00    4.390E+00
     4.306E+00    4.222E+00    4.140E+00    4.059E+00    3.979E+00    3.900E+00    3.822E+00    3.746E+00    3.670E+00    3.597E+00
     3.524E+00    3.453E+00    3.384E+00    3.316E+00    3.249E+00    3.184E+00    3.121E+00    3.059E+00    2.999E+00    2.941E+00
     2.885E+00    2.830E+00    2.778E+00    2.727E+00    2.678E+00    2.630E+00    2.585E+00    2.541E+00    2.499E+00    2.458E+00
     2.419E+00    2.382E+00    2.346E+00    2.311E+00    2.278E+00    2.247E+00    2.216E+00    2.188E+00    2.160E+00    2.134E+00
     2.109E+00    2.085E+00    2.063E+00    2.042E+00    2.021E+00    2.002E+00    1.984E+00    1.967E+00    1.951E+00    1.936E+00
     1.922E+00    1.909E+00    1.896E+00    1.885E+00    1.874E+00    1.864E+00    1.855E+00    1.846E+00    1.838E+00    1.831E+00
     1.824E+00    1.818E+00    1.813E+00    1.808E+00    1.803E+00    1.799E+00    1.795E+00    1.792E+00    1.789E+00    1.786E+00
     1.784E+00    1.782E+00    1.780E+00    1.779E+00    1.779E+00    1.778E+00    1.778E+00    1.779E+00    1.780E+00    1.781E+00
     1.782E+00    1.784E+00    1.787E+00    1.790E+00    1.793E+00    1.796E+00    1.800E+00    1.805E+00    1.810E+00    1.815E+00
     1.821E+00    1.827E+00    1.833E+00    1.840E+00    1.848E+00    1.856E+00    1.864E+00    1.873E+00    1.882E+00    1.891E+00
     1.901E+00    1.912E+00    1.923E+00    1.934E+00    1.946E+00    1.958E+00    1.971E+00    1.984E+00    1.998E+00    2.012E+00
     2.026E+00    2.041E+00    2.057E+00    2.073E+00    2.089E+00    2.106E+00    2.123E+00    2.141E+00    2.159E+00    2.178E+00
     2.197E+00    2.216E+00    2.236E+00    2.256E+00    2.276E+00    2.297E+00    2.319E+00    2.340E+00    2.362E+00    2.385E+00
     2.407E+00    2.430E+00    2.454E+00    2.477E+00    2.501E+00    2.526E+00    2.550E+00    2.575E+00    2.600E+00    2.626E+00
     2.652E+00    2.678E+00    2.704E+00    2.730E+00    2.757E+00    2.784E+00    2.811E+00    2.839E+00    2.866E+00    2.894E+00
     2.922E+00    2.951E+00    2.979E+00    3.008E+00    3.037E+00    3.066E+00    3.095E+00    3.124E+00    3.153E+00    3.183E+00
     3.213E+00    3.243E+00    3.273E+00    3.303E+00    3.333E+00    3.364E+00    3.394E+00    3.425E+00    3.455E+00    3.486E+00
     3.517E+00    3.549E+00    3.580E+00    3.611E+00    3.642E+00    3.674E+00    3.706E+00    3.737E+00    3.769E+00    3.801E+00
     3.833E+00    3.865E+00    3.897E+00    3.929E+00    3.962E+00    3.994E+00    4.026E+00    4.059E+00    4.091E+00    4.124E+00
     4.157E+00    4.189E+00    4.222E+00    4.255E+00    4.288E+00    4.321E+00    4.353E+00    4.386E+00    4.419E+00    4.452E+00
     4.485E+00    4.518E+00    4.551E+00    4.584E+00    4.617E+00    4.651E+00    4.684E+00    4.717E+00    4.750E+00    4.783E+00
     4.816E+00    4.849E+00    4.882E+00    4.915E+00    4.948E+00    4.981E+00    5.014E+00    5.047E+00    5.080E+00    5.113E+00
     5.146E+00    5.179E+00    5.211E+00    5.244E+00    5.277E+00    5.309E+00    5.342E+00    5.375E+00    5.407E+00    5.439E+00
     5.472E+00    5.504E+00    5.536E+00    5.569E+00    5.601E+00    5.633E+00    5.665E+00    5.696E+00    5.728E+00    5.760E+00
     5.792E+00    5.823E+00    5.854E+00    5.886E+00    5.917E+00    5.948E+00    5.979E+00    6.010E+00    6.041E+00    6.071E+00
     6.102E+00    6.132E+00    6.163E+00    6.193E+00    6.223E+00    6.253E+00    6.282E+00    6.312E+00    6.341E+00    6.370E+00
     6.400E+00    6.428E+00    6.457E+00    6.486E+00    6.514E+00    6.542E+00    6.570E+00    6.597E+00    6.625E+00    6.652E+00
     6.679E+00    6.706E+00    6.733E+00    6.759E+00    6.785E+00    6.811E+00    6.836E+00    6.862E+00    6.887E+00    6.912E+00
     6.936E+00    6.960E+00    6.984E+00    7.008E+00    7.031E+00    7.054E+00    7.077E+00    7.099E+00    7.122E+00    7.143E+00
     7.165E+00    7.186E+00    7.207E+00    7.227E+00    7.248E+00    7.267E+00    7.287E+00    7.306E+00    7.325E+00    7.344E+00
     7.362E+00    7.380E+00    7.398E+00    7.416E+00    7.433E+00    7.450E+00    7.467E+00    7.484E+00    7.500E+00    7.516E+00
     7.532E+00    7.548E+00    7.564E+00    7.579E+00    7.595E+00    7.610E+00    7.625E+00    7.640E+00    7.655E+00    7.669E+00
     7.684E+00    7.698E+00    7.713E+00    7.727E+00    7.741E+00    7.755E+00    7.769E+00    7.783E+00    7.797E+00    7.811E+00
     7.825E+00    7.839E+00    7.853E+00    7.867E+00    7.880E+00    7.894E+00    7.908E+00    7.922E+00
 Ala      Conc. = 2.48E+02
