 LCModel (Version 6.3-1L) Copyright: S.W. Provencher.          Ref.: Magn. Reson. Med. 30:672-679 (1993).                
 Slice#3 Row#14 Col#12  K_02_press_1_raw_act
 36 lines in following concentration table = NCONC+1
    Conc.  %SD /Cr+PCr  Metabolite                                         
   58.792  42%   2.434 Ala                                                 
    1.897 107% 7.9E-02 Asp                                                 
   24.154  42%   1.000 Cr                                                  
    0.000 999%   0.000 PCr                                                 
    1.090 112% 4.5E-02 GABA                                                
    1.078 114% 4.5E-02 Glc                                                 
    8.801 546%   0.364 Gln                                                 
   34.178 156%   1.415 Glu                                                 
    0.000 999%   0.000 GPC                                                 
    0.000 999%   0.000 PCh                                                 
    0.000 999%   0.000 GSH                                                 
   86.895  54%   3.598 Ins                                                 
   36.143  75%   1.496 Lac                                                 
   12.794 101%   0.530 NAA                                                 
    0.000 999%   0.000 NAAG                                                
    0.423  96% 1.8E-02 Scyllo                                              
    1.861 110% 7.7E-02 Tau                                                 
    0.000 999%   0.000 -CrCH2                                              
    0.000 999%   0.000 GPC+PCh                                             
   12.794 101%   0.530 NAA+NAAG                                            
   24.154  42%   1.000 Cr+PCr                                              
   42.980 169%   1.779 Glu+Gln                                             
 2.53E+03   6% 104.796 Lip13a                                              
    0.000 999%   0.000 Lip13b                                              
    0.000 999%   0.000-Lip09                                               
   47.363  69%   1.961 MM09                                                
  315.187  21%  13.049 Lip20                                               
   71.083  69%   2.943 MM20                                                
   14.211  69%   0.588 MM12                                                
   35.640  69%   1.476 MM14                                                
   17.748  69%   0.735 MM17                                                
 2.53E+03   6% 104.796 Lip13a+Lip13b                                       
 2.58E+03   5% 106.860 MM14+Lip13a+Lip13b+MM12                             
   47.363  69%   1.961 MM09+Lip09                                          
  386.269  16%  15.992 MM20+Lip20                                          
   6 lines in following misc. output table
  FWHM = 0.061 ppm    S/N =   4                                            
  Data shift =-0.122 ppm                                                   
  Ph:-140 deg      -0.3 deg/ppm                                            
  alphaB,S = 8.5E+01,   5.1E+01                                            
   14 spline knots.   Ns = 5(1)                                            
   2 inflections.     1 extrema                                            
  498 points on ppm-axis = NY
      4.000000     3.992357     3.984714     3.977070     3.969427     3.961784     3.954141     3.946497     3.938854     3.931211
      3.923568     3.915925     3.908281     3.900638     3.892995     3.885352     3.877708     3.870065     3.862422     3.854779
      3.847136     3.839492     3.831849     3.824206     3.816563     3.808919     3.801276     3.793633     3.785990     3.778347
      3.770703     3.763060     3.755417     3.747774     3.740130     3.732487     3.724844     3.717201     3.709558     3.701914
      3.694271     3.686628     3.678985     3.671341     3.663698     3.656055     3.648412     3.640769     3.633125     3.625482
      3.617839     3.610196     3.602552     3.594909     3.587266     3.579623     3.571980     3.564336     3.556693     3.549050
      3.541407     3.533763     3.526120     3.518477     3.510834     3.503191     3.495547     3.487904     3.480261     3.472618
      3.464974     3.457331     3.449688     3.442045     3.434402     3.426758     3.419115     3.411472     3.403829     3.396185
      3.388542     3.380899     3.373256     3.365613     3.357969     3.350326     3.342683     3.335040     3.327396     3.319753
      3.312110     3.304467     3.296824     3.289180     3.281537     3.273894     3.266251     3.258607     3.250964     3.243321
      3.235678     3.228034     3.220391     3.212748     3.205105     3.197462     3.189818     3.182175     3.174532     3.166889
      3.159245     3.151602     3.143959     3.136316     3.128673     3.121029     3.113386     3.105743     3.098100     3.090456
      3.082813     3.075170     3.067527     3.059884     3.052240     3.044597     3.036954     3.029311     3.021667     3.014024
      3.006381     2.998738     2.991095     2.983451     2.975808     2.968165     2.960522     2.952878     2.945235     2.937592
      2.929949     2.922306     2.914662     2.907019     2.899376     2.891733     2.884089     2.876446     2.868803     2.861160
      2.853517     2.845873     2.838230     2.830587     2.822944     2.815300     2.807657     2.800014     2.792371     2.784728
      2.777084     2.769441     2.761798     2.754155     2.746511     2.738868     2.731225     2.723582     2.715939     2.708295
      2.700652     2.693009     2.685366     2.677722     2.670079     2.662436     2.654793     2.647150     2.639506     2.631863
      2.624220     2.616577     2.608933     2.601290     2.593647     2.586004     2.578361     2.570717     2.563074     2.555431
      2.547788     2.540144     2.532501     2.524858     2.517215     2.509572     2.501928     2.494285     2.486642     2.478999
      2.471355     2.463712     2.456069     2.448426     2.440783     2.433139     2.425496     2.417853     2.410210     2.402566
      2.394923     2.387280     2.379637     2.371994     2.364350     2.356707     2.349064     2.341421     2.333777     2.326134
      2.318491     2.310848     2.303205     2.295561     2.287918     2.280275     2.272632     2.264988     2.257345     2.249702
      2.242059     2.234416     2.226772     2.219129     2.211486     2.203843     2.196199     2.188556     2.180913     2.173270
      2.165627     2.157983     2.150340     2.142697     2.135054     2.127410     2.119767     2.112124     2.104481     2.096838
      2.089194     2.081551     2.073908     2.066265     2.058621     2.050978     2.043335     2.035692     2.028049     2.020405
      2.012762     2.005119     1.997476     1.989833     1.982190     1.974546     1.966903     1.959260     1.951617     1.943974
      1.936331     1.928688     1.921045     1.913402     1.905759     1.898115     1.890472     1.882829     1.875186     1.867543
      1.859900     1.852257     1.844614     1.836971     1.829327     1.821684     1.814041     1.806398     1.798755     1.791112
      1.783469     1.775826     1.768183     1.760540     1.752896     1.745253     1.737610     1.729967     1.722324     1.714681
      1.707038     1.699395     1.691752     1.684108     1.676465     1.668822     1.661179     1.653536     1.645893     1.638250
      1.630607     1.622964     1.615321     1.607677     1.600034     1.592391     1.584748     1.577105     1.569462     1.561819
      1.554176     1.546533     1.538890     1.531246     1.523603     1.515960     1.508317     1.500674     1.493031     1.485388
      1.477745     1.470102     1.462458     1.454815     1.447172     1.439529     1.431886     1.424243     1.416600     1.408957
      1.401314     1.393671     1.386027     1.378384     1.370741     1.363098     1.355455     1.347812     1.340169     1.332526
      1.324883     1.317240     1.309596     1.301953     1.294310     1.286667     1.279024     1.271381     1.263738     1.256095
      1.248452     1.240808     1.233165     1.225522     1.217879     1.210236     1.202593     1.194950     1.187307     1.179664
      1.172021     1.164377     1.156734     1.149091     1.141448     1.133805     1.126162     1.118519     1.110876     1.103233
      1.095590     1.087946     1.080303     1.072660     1.065017     1.057374     1.049731     1.042088     1.034445     1.026802
      1.019158     1.011515     1.003872     0.996229     0.988586     0.980943     0.973300     0.965657     0.958014     0.950371
      0.942727     0.935084     0.927441     0.919798     0.912155     0.904512     0.896869     0.889226     0.881583     0.873940
      0.866296     0.858653     0.851010     0.843367     0.835724     0.828081     0.820438     0.812795     0.805152     0.797508
      0.789865     0.782222     0.774579     0.766936     0.759293     0.751650     0.744007     0.736364     0.728721     0.721077
      0.713434     0.705791     0.698148     0.690505     0.682862     0.675219     0.667576     0.659933     0.652290     0.644646
      0.637003     0.629360     0.621717     0.614074     0.606431     0.598788     0.591145     0.583502     0.575858     0.568215
      0.560572     0.552929     0.545286     0.537643     0.530000     0.522357     0.514714     0.507071     0.499427     0.491784
      0.484141     0.476498     0.468855     0.461212     0.453569     0.445925     0.438282     0.430639     0.422996     0.415353
      0.407710     0.400067     0.392424     0.384780     0.377137     0.369494     0.361851     0.354208     0.346565     0.338922
      0.331278     0.323635     0.315992     0.308349     0.300706     0.293063     0.285420     0.277777     0.270133     0.262490
      0.254847     0.247204     0.239561     0.231918     0.224275     0.216631     0.208988     0.201345
 NY phased data points follow
   3.28304E+00  2.39602E+00  2.57579E+00  7.27022E-01  1.30265E+00  1.08479E+00  1.74838E+00  1.62580E+00  2.73100E-01  1.35914E+00
   1.94950E+00  2.23426E+00  2.45743E+00  1.31462E+00  2.10415E+00  1.49536E+00  1.63168E+00  2.04888E+00  1.50111E+00  3.86967E-01
   2.02928E+00  2.16657E+00  1.37397E+00  1.44429E+00  1.27350E+00  8.04247E-01  4.19245E-01  9.23901E-01 -4.80550E-01  6.72436E-01
  -8.12527E-02 -1.12778E-01  2.85542E+00  1.72545E-01  1.48969E+00  1.73155E+00  1.36625E+00  1.83623E+00  6.02578E-01 -7.58036E-02
   9.28470E-01  1.54014E+00  8.06289E-01  1.47730E+00  8.72590E-01 -3.51840E-01  2.64562E+00  1.29108E+00  1.59406E+00  2.89284E-01
   5.06048E-01  1.57345E+00  8.23685E-01  1.81688E+00  1.54987E+00  6.78572E-01  8.53471E-01  1.79290E+00  1.14954E+00  2.02502E+00
   8.31883E-01  2.83837E-01  9.34552E-01  1.38419E+00  2.81537E-01  1.00808E+00  2.51573E+00  1.92325E+00  1.95101E+00  9.46632E-01
  -1.28582E-01  3.68770E-01  8.56567E-01  1.38143E+00  4.45508E-01  5.43379E-01  3.46469E-01  4.03721E-03  7.26219E-01  7.86286E-01
   3.36333E-01  1.26351E+00  8.97133E-01  2.21313E+00  1.25194E+00  1.66147E+00  1.55367E+00  1.59447E+00 -3.68326E-01  1.84477E+00
   1.85774E+00  1.46669E+00  1.16473E+00 -6.99794E-01  1.68554E+00  2.16800E+00  8.87127E-01  5.52781E-01  9.79169E-01  1.20836E+00
  -4.00665E-01  1.49725E+00  7.18280E-01  8.77213E-01  7.28389E-01 -3.68129E-01  3.37380E-01  5.35478E-01  5.19754E-01  4.59380E-01
   5.53435E-01  1.50789E+00  6.56694E-01  3.13127E-01  1.56570E+00  2.07119E+00 -3.35857E-01  2.47213E-01  5.22719E-02 -4.21866E-01
  -4.60920E-02  1.28636E+00  8.70266E-01  8.64770E-01  2.75393E-01  1.13468E-01  1.70502E+00  8.41436E-01  1.88354E+00  1.55244E+00
   5.53437E-01  2.21563E+00  8.02876E-01  1.78046E+00  3.78597E-01  1.00055E+00 -7.07705E-01  7.27167E-01  7.38100E-01  8.80639E-01
   6.67831E-01  6.05795E-01  5.42875E-01  3.16473E-01 -4.81902E-01  5.09919E-01 -3.40182E-01 -3.46850E-01  1.31937E+00  4.16418E-01
  -2.47128E-01  7.02157E-01 -7.66127E-01  1.25641E+00  1.59433E+00  6.04682E-01  8.93454E-01  1.45965E+00  8.69598E-01  2.91070E-01
   1.02392E+00  8.66032E-01  1.22506E+00  1.54266E+00  5.09624E-01  3.69962E-01 -3.55932E-01  1.41364E+00 -4.16496E-01 -7.51115E-01
  -1.09973E+00  9.52774E-01  9.15154E-01  1.13795E+00  7.93199E-01  1.00840E+00  5.64604E-01  1.06803E+00  7.57738E-01  5.47329E-01
   1.65801E+00  4.95602E-01  1.26449E+00  9.43872E-01  1.75196E+00  2.20190E-01  2.97137E-01  1.51526E+00  7.57019E-02  4.26873E-01
   2.86274E-01  4.67349E-01 -5.57039E-01  9.53144E-01  4.98443E-01  1.18162E+00  6.27537E-01  5.79676E-01  7.44212E-01  3.63525E-02
   6.22115E-01  1.97607E+00  5.41705E-01  7.27318E-01  1.31974E-02  8.25917E-01  2.93354E+00 -1.52969E-01  1.92143E-01  1.55839E+00
   4.28191E-01  2.29620E-01  1.06108E+00  1.34490E+00  8.89195E-01  1.06845E+00  3.16720E-02  1.06489E+00  1.54940E-01  2.08975E+00
   5.21328E-01  1.73123E+00  1.50684E+00  8.23276E-01  1.29045E+00  2.24940E-01  1.61335E+00 -2.09488E-01  1.78437E+00  1.42088E+00
   7.24285E-01  2.18472E+00  1.89146E+00  1.38984E+00  2.10085E+00  1.52879E+00  1.86094E-01  1.94238E+00  7.89214E-01  6.78500E-01
   2.07058E+00  1.13615E+00  1.68527E+00  1.73933E+00  2.39474E+00  2.37459E+00  2.72349E+00  3.06940E+00  1.12776E+00  1.34130E+00
   2.92097E+00  2.83340E+00  1.62084E+00  1.89613E+00  1.68784E+00  1.64664E+00  2.86443E+00  1.48048E+00  1.29846E+00  2.14136E+00
   2.78185E+00  2.25761E+00  1.61344E+00  2.04046E+00  1.98887E+00  2.51678E+00  2.61539E+00  1.88470E+00  4.74845E+00  2.29409E+00
   3.11856E+00  4.15053E+00  1.49457E+00  1.43535E+00  6.03730E-01  1.26354E+00  1.70294E-01  1.47351E+00  3.76527E-01  2.76567E-02
   4.61151E-01  1.43145E+00  2.08423E+00  2.46081E-01  1.34499E+00  9.31554E-01  1.04908E+00  1.90593E+00 -2.43730E-01  6.09093E-01
   2.37926E+00  5.50351E-01  1.63015E+00  1.16255E+00  1.39429E+00  2.05569E+00  1.75247E+00  2.15088E-02  1.84866E+00  1.22421E+00
   1.06123E+00  1.31007E+00  2.06628E+00  2.28688E+00  2.04710E-01  9.99308E-01  1.18354E+00  1.18857E+00  2.60388E+00  1.28123E+00
   9.30396E-01  2.09169E+00  9.96971E-01  3.03037E+00  2.49977E+00  1.64416E+00  2.50382E+00  2.81907E+00  1.53091E+00  2.78822E+00
   2.83013E+00  1.74684E+00  2.53391E+00  1.34497E+00  3.05118E+00  2.96882E+00  3.77380E+00  3.01716E+00  3.83699E+00  2.93741E+00
   4.58550E+00  3.81600E+00  2.69896E+00  3.70984E+00  5.38068E+00  7.19378E+00  7.49081E+00  5.16104E+00  5.16733E+00  7.51165E+00
   8.46049E+00  8.13555E+00  8.42533E+00  9.19427E+00  8.18890E+00  7.51247E+00  7.11702E+00  7.58117E+00  6.71736E+00  7.87839E+00
   8.76740E+00  7.27273E+00  7.45855E+00  7.33174E+00  6.55434E+00  7.82224E+00  6.53334E+00  6.65877E+00  6.63560E+00  6.79519E+00
   6.33109E+00  6.72817E+00  6.88980E+00  5.57159E+00  6.98831E+00  5.19692E+00  5.60754E+00  5.90319E+00  5.75272E+00  5.97543E+00
   5.40452E+00  4.47039E+00  5.71182E+00  4.77982E+00  4.50996E+00  4.77900E+00  4.29429E+00  4.31590E+00  2.71418E+00  4.78472E+00
   3.32932E+00  1.92725E+00  3.15575E+00  1.90708E+00  1.92021E+00  2.53228E+00  2.08664E+00  1.58902E+00  1.72313E+00  9.71663E-01
   2.79184E+00  1.52147E+00  1.04528E+00  1.38979E+00  1.59913E+00  1.57686E+00  3.07236E-01  2.16460E+00  7.08108E-01  1.95338E+00
   1.69849E+00  8.56772E-01  4.10484E-01  8.93042E-01 -1.20072E+00  3.61532E-01  2.80377E-01  1.47926E+00  1.07360E+00 -1.05328E-01
   1.82561E+00 -4.47750E-02 -4.99155E-01 -5.75069E-01  5.16742E-01  4.56416E-01  3.20992E-01  4.33652E-01  1.64166E-01  6.24306E-01
   8.27402E-01  7.70133E-01  8.42472E-01  1.54309E-01  7.44633E-01  5.89059E-01  1.06184E+00  5.17972E-01  2.81313E-01  1.50022E-01
  -6.01693E-01 -1.97969E-01  8.74691E-01  2.51308E-02  8.31916E-01  4.75681E-01 -4.47365E-01 -1.74750E-01  9.41094E-02  5.46294E-01
  -2.96410E-01  3.63865E-01 -1.83269E-01 -4.77773E-01 -4.94570E-01  5.17827E-01 -8.84343E-01  5.75532E-01 -3.92748E-02 -9.33030E-02
  -1.17587E+00  1.13458E+00 -1.31208E+00 -3.88793E-01  5.97007E-01 -9.98910E-02 -1.33477E+00 -1.41556E-01  2.39773E-02  7.11794E-01
   2.73660E-01  5.89329E-01  1.78792E+00  9.88631E-01  6.03575E-01  2.62912E-01 -7.61659E-01 -6.62538E-01  5.79859E-01  2.55300E-01
  -5.38303E-01  6.20572E-01 -2.06093E-01 -5.94071E-01 -4.15993E-01  2.92648E-01 -1.79177E-01  9.64728E-01 -1.49776E+00  9.77268E-01
  -3.35108E-01  4.59999E-01  3.38815E-01  5.95618E-01 -2.63075E-01  1.27581E-01  3.71107E-01  5.03000E-02  8.24604E-01 -2.49212E-01
  -6.07004E-02 -3.90777E-01  1.92845E-01  1.22459E+00 -4.78143E-01 -8.46052E-02 -3.31951E-01  2.14843E-01
 NY points of the fit to the data follow
   1.10847E+00  1.04854E+00  9.96417E-01  9.65502E-01  9.51807E-01  9.44305E-01  9.62986E-01  1.03429E+00  1.14087E+00  1.25731E+00
   1.35726E+00  1.41918E+00  1.43618E+00  1.41421E+00  1.36416E+00  1.28474E+00  1.17185E+00  1.04661E+00  9.63737E-01  9.54505E-01
   9.86839E-01  1.03260E+00  1.07196E+00  1.08784E+00  1.06691E+00  1.00651E+00  9.22870E-01  8.35083E-01  7.66077E-01  7.32567E-01
   7.40597E-01  7.95708E-01  8.93087E-01  9.99370E-01  1.08657E+00  1.13931E+00  1.15288E+00  1.12393E+00  1.05072E+00  9.51566E-01
   8.66130E-01  8.16280E-01  8.10195E-01  8.68568E-01  9.95362E-01  1.16226E+00  1.31971E+00  1.42028E+00  1.44674E+00  1.41424E+00
   1.34402E+00  1.24455E+00  1.11172E+00  9.54507E-01  8.26582E-01  7.87703E-01  8.29364E-01  9.08287E-01  9.90826E-01  1.05839E+00
   1.09826E+00  1.10558E+00  1.08680E+00  1.05389E+00  1.01294E+00  9.65197E-01  9.21206E-01  9.02241E-01  9.12741E-01  9.47491E-01
   9.91623E-01  1.03094E+00  1.05578E+00  1.06224E+00  1.05500E+00  1.04053E+00  1.02036E+00  9.95010E-01  9.66484E-01  9.45940E-01
   9.34512E-01  9.27238E-01  9.15896E-01  8.92172E-01  8.51027E-01  7.95444E-01  7.34658E-01  6.79885E-01  6.40153E-01  6.20043E-01
   6.18823E-01  6.36330E-01  6.75512E-01  7.29433E-01  7.78197E-01  8.04904E-01  8.04272E-01  7.83107E-01  7.49707E-01  7.10447E-01
   6.70470E-01  6.36634E-01  6.13778E-01  6.06807E-01  6.16622E-01  6.33307E-01  6.50968E-01  6.67726E-01  6.84343E-01  7.00243E-01
   7.12925E-01  7.20921E-01  7.25707E-01  7.30089E-01  7.33500E-01  7.35846E-01  7.36995E-01  7.37415E-01  7.37727E-01  7.39027E-01
   7.43203E-01  7.57881E-01  8.20447E-01  9.58640E-01  1.13982E+00  1.32533E+00  1.47671E+00  1.56615E+00  1.59169E+00  1.57096E+00
   1.51505E+00  1.41356E+00  1.25785E+00  1.08245E+00  9.68076E-01  9.37442E-01  9.33808E-01  9.37942E-01  9.45917E-01  9.56297E-01
   9.68350E-01  9.81777E-01  9.96326E-01  1.01166E+00  1.02712E+00  1.04230E+00  1.05732E+00  1.07221E+00  1.08672E+00  1.10026E+00
   1.11248E+00  1.12348E+00  1.13339E+00  1.14233E+00  1.14984E+00  1.15512E+00  1.15726E+00  1.15606E+00  1.15211E+00  1.14628E+00
   1.13981E+00  1.13286E+00  1.12484E+00  1.11521E+00  1.10372E+00  1.09074E+00  1.07663E+00  1.06094E+00  1.04260E+00  1.02178E+00
   9.99559E-01  9.76701E-01  9.54133E-01  9.32453E-01  9.11967E-01  8.93057E-01  8.75177E-01  8.57828E-01  8.41126E-01  8.25584E-01
   8.12105E-01  8.00680E-01  7.89720E-01  7.77932E-01  7.66504E-01  7.58007E-01  7.52977E-01  7.50190E-01  7.47281E-01  7.43314E-01
   7.39266E-01  7.35919E-01  7.33597E-01  7.31137E-01  7.27421E-01  7.23770E-01  7.22649E-01  7.25626E-01  7.33632E-01  7.46733E-01
   7.64144E-01  7.84105E-01  8.02782E-01  8.16738E-01  8.23641E-01  8.17171E-01  7.98088E-01  7.73580E-01  7.51559E-01  7.41539E-01
   7.51944E-01  7.92793E-01  8.59700E-01  9.39038E-01  1.01643E+00  1.07965E+00  1.11656E+00  1.11406E+00  1.07843E+00  1.02669E+00
   9.73293E-01  9.34125E-01  9.28338E-01  9.67297E-01  1.03377E+00  1.11046E+00  1.19182E+00  1.27270E+00  1.34113E+00  1.38183E+00
   1.39534E+00  1.39703E+00  1.39856E+00  1.40153E+00  1.40938E+00  1.42373E+00  1.44424E+00  1.46841E+00  1.48870E+00  1.50569E+00
   1.52430E+00  1.54671E+00  1.57181E+00  1.59857E+00  1.62798E+00  1.65892E+00  1.69031E+00  1.72210E+00  1.75563E+00  1.78967E+00
   1.81970E+00  1.84905E+00  1.87770E+00  1.90068E+00  1.91960E+00  1.95714E+00  2.02935E+00  2.11580E+00  2.19496E+00  2.24918E+00
   2.26601E+00  2.24443E+00  2.19541E+00  2.12545E+00  2.02774E+00  1.89458E+00  1.74515E+00  1.62480E+00  1.54945E+00  1.49059E+00
   1.44008E+00  1.39762E+00  1.36050E+00  1.32642E+00  1.29612E+00  1.26885E+00  1.24374E+00  1.22017E+00  1.19746E+00  1.17530E+00
   1.15520E+00  1.13887E+00  1.12656E+00  1.11802E+00  1.11313E+00  1.11176E+00  1.11353E+00  1.11784E+00  1.12422E+00  1.13277E+00
   1.14345E+00  1.15617E+00  1.17098E+00  1.18794E+00  1.20697E+00  1.22791E+00  1.25070E+00  1.27532E+00  1.30167E+00  1.32969E+00
   1.35936E+00  1.39064E+00  1.42354E+00  1.45811E+00  1.49444E+00  1.53270E+00  1.57309E+00  1.61586E+00  1.66132E+00  1.70982E+00
   1.76184E+00  1.81787E+00  1.87847E+00  1.94428E+00  2.01606E+00  2.09467E+00  2.18124E+00  2.27722E+00  2.38471E+00  2.50705E+00
   2.65073E+00  2.83155E+00  3.06916E+00  3.31129E+00  3.49646E+00  3.59809E+00  3.61069E+00  3.55506E+00  3.46567E+00  3.36817E+00
   3.31921E+00  3.37210E+00  3.56033E+00  3.92495E+00  4.44525E+00  4.97940E+00  5.44987E+00  5.86950E+00  6.24885E+00  6.56440E+00
   6.77886E+00  6.90908E+00  7.07225E+00  7.29457E+00  7.49923E+00  7.64745E+00  7.72325E+00  7.73007E+00  7.68483E+00  7.60721E+00
   7.53730E+00  7.49662E+00  7.49564E+00  7.55692E+00  7.67922E+00  7.78946E+00  7.82994E+00  7.80927E+00  7.73471E+00  7.59242E+00
   7.36501E+00  7.07119E+00  6.77959E+00  6.51013E+00  6.24665E+00  5.98394E+00  5.72147E+00  5.46010E+00  5.20120E+00  4.94629E+00
   4.69682E+00  4.45412E+00  4.21934E+00  3.99342E+00  3.77710E+00  3.57094E+00  3.37533E+00  3.19050E+00  3.01651E+00  2.85334E+00
   2.70082E+00  2.55875E+00  2.42685E+00  2.30477E+00  2.19214E+00  2.08853E+00  1.99350E+00  1.90659E+00  1.82730E+00  1.75511E+00
   1.68945E+00  1.62974E+00  1.57538E+00  1.52573E+00  1.48012E+00  1.43789E+00  1.39835E+00  1.36083E+00  1.32469E+00  1.28933E+00
   1.25422E+00  1.21888E+00  1.18293E+00  1.14610E+00  1.10821E+00  1.06920E+00  1.02910E+00  9.88032E-01  9.46188E-01  9.03834E-01
   8.61278E-01  8.18846E-01  7.76870E-01  7.35665E-01  6.95524E-01  6.56701E-01  6.19404E-01  5.83793E-01  5.49971E-01  5.17997E-01
   4.87886E-01  4.59618E-01  4.33138E-01  4.08368E-01  3.85209E-01  3.63555E-01  3.43293E-01  3.24311E-01  3.06498E-01  2.89746E-01
   2.73955E-01  2.59033E-01  2.44899E-01  2.31477E-01  2.18701E-01  2.06510E-01  1.94850E-01  1.83677E-01  1.72949E-01  1.62632E-01
   1.52691E-01  1.43100E-01  1.33831E-01  1.24864E-01  1.16179E-01  1.07757E-01  9.95828E-02  9.16397E-02  8.39147E-02  7.63963E-02
   6.90735E-02  6.19359E-02  5.49732E-02  4.81765E-02  4.15378E-02  3.50501E-02  2.87066E-02  2.25002E-02  1.64241E-02  1.04726E-02
   4.64052E-03 -1.07668E-03 -6.68380E-03 -1.21858E-02 -1.75873E-02 -2.28923E-02 -2.81042E-02 -3.32262E-02 -3.82618E-02 -4.32147E-02
  -4.80884E-02 -5.28853E-02 -5.76079E-02 -6.22584E-02 -6.68395E-02 -7.13540E-02 -7.58045E-02 -8.01928E-02 -8.45205E-02 -8.87892E-02
  -9.30013E-02 -9.71589E-02 -1.01264E-01 -1.05317E-01 -1.09319E-01 -1.13272E-01 -1.17178E-01 -1.21037E-01 -1.24852E-01 -1.28622E-01
  -1.32349E-01 -1.36033E-01 -1.39675E-01 -1.43276E-01 -1.46838E-01 -1.50359E-01 -1.53840E-01 -1.57281E-01
 NY background values follow
     9.961E-01    9.939E-01    9.917E-01    9.895E-01    9.873E-01    9.851E-01    9.828E-01    9.806E-01    9.784E-01    9.762E-01
     9.740E-01    9.718E-01    9.696E-01    9.674E-01    9.651E-01    9.629E-01    9.607E-01    9.585E-01    9.563E-01    9.541E-01
     9.518E-01    9.496E-01    9.474E-01    9.452E-01    9.430E-01    9.407E-01    9.385E-01    9.363E-01    9.340E-01    9.318E-01
     9.296E-01    9.274E-01    9.251E-01    9.229E-01    9.207E-01    9.184E-01    9.162E-01    9.140E-01    9.117E-01    9.095E-01
     9.073E-01    9.050E-01    9.028E-01    9.005E-01    8.983E-01    8.961E-01    8.938E-01    8.916E-01    8.893E-01    8.871E-01
     8.849E-01    8.826E-01    8.804E-01    8.781E-01    8.759E-01    8.736E-01    8.714E-01    8.691E-01    8.669E-01    8.646E-01
     8.624E-01    8.601E-01    8.579E-01    8.556E-01    8.534E-01    8.511E-01    8.488E-01    8.466E-01    8.443E-01    8.421E-01
     8.398E-01    8.376E-01    8.353E-01    8.330E-01    8.308E-01    8.285E-01    8.263E-01    8.240E-01    8.217E-01    8.195E-01
     8.172E-01    8.149E-01    8.127E-01    8.104E-01    8.081E-01    8.059E-01    8.036E-01    8.013E-01    7.990E-01    7.968E-01
     7.945E-01    7.922E-01    7.900E-01    7.877E-01    7.854E-01    7.831E-01    7.809E-01    7.786E-01    7.763E-01    7.740E-01
     7.717E-01    7.695E-01    7.672E-01    7.649E-01    7.626E-01    7.603E-01    7.581E-01    7.558E-01    7.535E-01    7.512E-01
     7.489E-01    7.466E-01    7.444E-01    7.421E-01    7.398E-01    7.375E-01    7.352E-01    7.329E-01    7.306E-01    7.283E-01
     7.260E-01    7.238E-01    7.215E-01    7.192E-01    7.169E-01    7.146E-01    7.123E-01    7.100E-01    7.077E-01    7.054E-01
     7.031E-01    7.008E-01    6.985E-01    6.962E-01    6.939E-01    6.916E-01    6.893E-01    6.870E-01    6.847E-01    6.824E-01
     6.801E-01    6.778E-01    6.755E-01    6.732E-01    6.709E-01    6.686E-01    6.663E-01    6.640E-01    6.617E-01    6.594E-01
     6.571E-01    6.548E-01    6.525E-01    6.502E-01    6.479E-01    6.455E-01    6.432E-01    6.409E-01    6.386E-01    6.363E-01
     6.340E-01    6.317E-01    6.294E-01    6.271E-01    6.247E-01    6.224E-01    6.201E-01    6.178E-01    6.155E-01    6.132E-01
     6.109E-01    6.085E-01    6.062E-01    6.039E-01    6.016E-01    5.993E-01    5.970E-01    5.946E-01    5.923E-01    5.900E-01
     5.877E-01    5.854E-01    5.830E-01    5.807E-01    5.784E-01    5.761E-01    5.738E-01    5.714E-01    5.691E-01    5.668E-01
     5.645E-01    5.621E-01    5.598E-01    5.575E-01    5.552E-01    5.528E-01    5.505E-01    5.482E-01    5.459E-01    5.435E-01
     5.412E-01    5.389E-01    5.366E-01    5.342E-01    5.319E-01    5.296E-01    5.272E-01    5.249E-01    5.226E-01    5.203E-01
     5.179E-01    5.156E-01    5.133E-01    5.109E-01    5.086E-01    5.063E-01    5.039E-01    5.016E-01    4.993E-01    4.969E-01
     4.946E-01    4.923E-01    4.899E-01    4.876E-01    4.853E-01    4.829E-01    4.806E-01    4.783E-01    4.759E-01    4.736E-01
     4.713E-01    4.689E-01    4.666E-01    4.642E-01    4.619E-01    4.596E-01    4.572E-01    4.549E-01    4.526E-01    4.502E-01
     4.479E-01    4.455E-01    4.432E-01    4.409E-01    4.385E-01    4.362E-01    4.338E-01    4.315E-01    4.292E-01    4.268E-01
     4.245E-01    4.221E-01    4.198E-01    4.174E-01    4.151E-01    4.128E-01    4.104E-01    4.081E-01    4.057E-01    4.034E-01
     4.010E-01    3.987E-01    3.964E-01    3.940E-01    3.917E-01    3.893E-01    3.870E-01    3.846E-01    3.823E-01    3.799E-01
     3.776E-01    3.753E-01    3.729E-01    3.706E-01    3.682E-01    3.659E-01    3.635E-01    3.612E-01    3.588E-01    3.565E-01
     3.541E-01    3.518E-01    3.494E-01    3.471E-01    3.448E-01    3.424E-01    3.401E-01    3.377E-01    3.354E-01    3.330E-01
     3.307E-01    3.283E-01    3.260E-01    3.236E-01    3.213E-01    3.189E-01    3.166E-01    3.142E-01    3.119E-01    3.095E-01
     3.072E-01    3.048E-01    3.025E-01    3.001E-01    2.978E-01    2.954E-01    2.931E-01    2.907E-01    2.884E-01    2.860E-01
     2.837E-01    2.813E-01    2.790E-01    2.766E-01    2.743E-01    2.719E-01    2.696E-01    2.672E-01    2.649E-01    2.625E-01
     2.602E-01    2.578E-01    2.555E-01    2.531E-01    2.508E-01    2.484E-01    2.461E-01    2.437E-01    2.414E-01    2.390E-01
     2.367E-01    2.343E-01    2.320E-01    2.296E-01    2.273E-01    2.249E-01    2.226E-01    2.202E-01    2.179E-01    2.155E-01
     2.132E-01    2.108E-01    2.085E-01    2.061E-01    2.038E-01    2.014E-01    1.991E-01    1.967E-01    1.944E-01    1.920E-01
     1.897E-01    1.873E-01    1.850E-01    1.826E-01    1.803E-01    1.779E-01    1.756E-01    1.732E-01    1.709E-01    1.685E-01
     1.662E-01    1.638E-01    1.615E-01    1.591E-01    1.568E-01    1.544E-01    1.521E-01    1.497E-01    1.474E-01    1.450E-01
     1.427E-01    1.403E-01    1.380E-01    1.356E-01    1.333E-01    1.309E-01    1.286E-01    1.262E-01    1.239E-01    1.215E-01
     1.192E-01    1.168E-01    1.145E-01    1.121E-01    1.098E-01    1.075E-01    1.051E-01    1.028E-01    1.004E-01    9.806E-02
     9.572E-02    9.337E-02    9.103E-02    8.868E-02    8.633E-02    8.399E-02    8.164E-02    7.930E-02    7.695E-02    7.461E-02
     7.226E-02    6.992E-02    6.757E-02    6.523E-02    6.288E-02    6.054E-02    5.820E-02    5.585E-02    5.351E-02    5.117E-02
     4.882E-02    4.648E-02    4.414E-02    4.180E-02    3.946E-02    3.711E-02    3.477E-02    3.243E-02    3.009E-02    2.775E-02
     2.541E-02    2.307E-02    2.073E-02    1.839E-02    1.605E-02    1.371E-02    1.137E-02    9.029E-03    6.690E-03    4.352E-03
     2.014E-03   -3.244E-04   -2.662E-03   -5.000E-03   -7.337E-03   -9.674E-03   -1.201E-02   -1.435E-02   -1.668E-02   -1.902E-02
    -2.135E-02   -2.369E-02   -2.602E-02   -2.836E-02   -3.069E-02   -3.303E-02   -3.536E-02   -3.770E-02   -4.003E-02   -4.236E-02
    -4.469E-02   -4.703E-02   -4.936E-02   -5.169E-02   -5.402E-02   -5.635E-02   -5.868E-02   -6.101E-02   -6.334E-02   -6.567E-02
    -6.800E-02   -7.033E-02   -7.266E-02   -7.499E-02   -7.732E-02   -7.964E-02   -8.197E-02   -8.430E-02   -8.662E-02   -8.895E-02
    -9.128E-02   -9.360E-02   -9.593E-02   -9.825E-02   -1.006E-01   -1.029E-01   -1.052E-01   -1.075E-01   -1.099E-01   -1.122E-01
    -1.145E-01   -1.168E-01   -1.192E-01   -1.215E-01   -1.238E-01   -1.261E-01   -1.284E-01   -1.308E-01   -1.331E-01   -1.354E-01
    -1.377E-01   -1.400E-01   -1.423E-01   -1.447E-01   -1.470E-01   -1.493E-01   -1.516E-01   -1.539E-01
 Ala      Conc. = 5.88E+01
