 LCModel (Version 6.3-1L) Copyright: S.W. Provencher.          Ref.: Magn. Reson. Med. 30:672-679 (1993).                
 Slice#2 Row#2 Col#6  K_02_press_1_raw_act
 36 lines in following concentration table = NCONC+1
    Conc.  %SD /Cr+PCr  Metabolite                                         
  309.103  33%   0.486 Ala                                                 
    0.000 999%   0.000 Asp                                                 
  398.810  39%   0.627 Cr                                                  
  236.949  67%   0.373 PCr                                                 
   62.397 120% 9.8E-02 GABA                                                
   58.909 126% 9.3E-02 Glc                                                 
    0.000 999%   0.000 Gln                                                 
  377.325  61%   0.594 Glu                                                 
  230.558   8%   0.363 GPC                                                 
    0.000 999%   0.000 PCh                                                 
  194.451  32%   0.306 GSH                                                 
  863.346  24%   1.358 Ins                                                 
    0.000 999%   0.000 Lac                                                 
  706.041  14%   1.111 NAA                                                 
  347.813  32%   0.547 NAAG                                                
   13.180 138% 2.1E-02 Scyllo                                              
  112.020 101%   0.176 Tau                                                 
  211.922  37%   0.333 -CrCH2                                              
  230.558   8%   0.363 GPC+PCh                                             
 1.05E+03   6%   1.658 NAA+NAAG                                            
  635.759   8%   1.000 Cr+PCr                                              
  377.325  61%   0.594 Glu+Gln                                             
 5.09E+03   8%   8.006 Lip13a                                              
    0.000 999%   0.000 Lip13b                                              
    0.000 999%   0.000 Lip09                                               
 1.29E+03  13%   2.022 MM09                                                
  192.075 175%   0.302 Lip20                                               
 1.87E+03  17%   2.940 MM20                                                
  461.682  31%   0.726 MM12                                                
    0.000 999%   0.000 MM14                                                
  237.610  61%   0.374 MM17                                                
 5.09E+03   8%   8.006 Lip13a+Lip13b                                       
 5.55E+03   7%   8.732 MM14+Lip13a+Lip13b+MM12                             
 1.29E+03  13%   2.022 MM09+Lip09                                          
 2.06E+03  14%   3.242 MM20+Lip20                                          
   6 lines in following misc. output table
  FWHM = 0.061 ppm    S/N =   6                                            
  Data shift = 0.023 ppm                                                   
  Ph:  60 deg      27.1 deg/ppm                                            
  alphaB,S = 8.5E+01,   1.3E+02                                            
   14 spline knots.   Ns = 7(1)                                            
   2 inflections.     1 extrema                                            
  498 points on ppm-axis = NY
      4.000000     3.992357     3.984714     3.977070     3.969427     3.961784     3.954141     3.946497     3.938854     3.931211
      3.923568     3.915925     3.908281     3.900638     3.892995     3.885352     3.877708     3.870065     3.862422     3.854779
      3.847136     3.839492     3.831849     3.824206     3.816563     3.808919     3.801276     3.793633     3.785990     3.778347
      3.770703     3.763060     3.755417     3.747774     3.740130     3.732487     3.724844     3.717201     3.709558     3.701914
      3.694271     3.686628     3.678985     3.671341     3.663698     3.656055     3.648412     3.640769     3.633125     3.625482
      3.617839     3.610196     3.602552     3.594909     3.587266     3.579623     3.571980     3.564336     3.556693     3.549050
      3.541407     3.533763     3.526120     3.518477     3.510834     3.503191     3.495547     3.487904     3.480261     3.472618
      3.464974     3.457331     3.449688     3.442045     3.434402     3.426758     3.419115     3.411472     3.403829     3.396185
      3.388542     3.380899     3.373256     3.365613     3.357969     3.350326     3.342683     3.335040     3.327396     3.319753
      3.312110     3.304467     3.296824     3.289180     3.281537     3.273894     3.266251     3.258607     3.250964     3.243321
      3.235678     3.228034     3.220391     3.212748     3.205105     3.197462     3.189818     3.182175     3.174532     3.166889
      3.159245     3.151602     3.143959     3.136316     3.128673     3.121029     3.113386     3.105743     3.098100     3.090456
      3.082813     3.075170     3.067527     3.059884     3.052240     3.044597     3.036954     3.029311     3.021667     3.014024
      3.006381     2.998738     2.991095     2.983451     2.975808     2.968165     2.960522     2.952878     2.945235     2.937592
      2.929949     2.922306     2.914662     2.907019     2.899376     2.891733     2.884089     2.876446     2.868803     2.861160
      2.853517     2.845873     2.838230     2.830587     2.822944     2.815300     2.807657     2.800014     2.792371     2.784728
      2.777084     2.769441     2.761798     2.754155     2.746511     2.738868     2.731225     2.723582     2.715939     2.708295
      2.700652     2.693009     2.685366     2.677722     2.670079     2.662436     2.654793     2.647150     2.639506     2.631863
      2.624220     2.616577     2.608933     2.601290     2.593647     2.586004     2.578361     2.570717     2.563074     2.555431
      2.547788     2.540144     2.532501     2.524858     2.517215     2.509572     2.501928     2.494285     2.486642     2.478999
      2.471355     2.463712     2.456069     2.448426     2.440783     2.433139     2.425496     2.417853     2.410210     2.402566
      2.394923     2.387280     2.379637     2.371994     2.364350     2.356707     2.349064     2.341421     2.333777     2.326134
      2.318491     2.310848     2.303205     2.295561     2.287918     2.280275     2.272632     2.264988     2.257345     2.249702
      2.242059     2.234416     2.226772     2.219129     2.211486     2.203843     2.196199     2.188556     2.180913     2.173270
      2.165627     2.157983     2.150340     2.142697     2.135054     2.127410     2.119767     2.112124     2.104481     2.096838
      2.089194     2.081551     2.073908     2.066265     2.058621     2.050978     2.043335     2.035692     2.028049     2.020405
      2.012762     2.005119     1.997476     1.989833     1.982190     1.974546     1.966903     1.959260     1.951617     1.943974
      1.936331     1.928688     1.921045     1.913402     1.905759     1.898115     1.890472     1.882829     1.875186     1.867543
      1.859900     1.852257     1.844614     1.836971     1.829327     1.821684     1.814041     1.806398     1.798755     1.791112
      1.783469     1.775826     1.768183     1.760540     1.752896     1.745253     1.737610     1.729967     1.722324     1.714681
      1.707038     1.699395     1.691752     1.684108     1.676465     1.668822     1.661179     1.653536     1.645893     1.638250
      1.630607     1.622964     1.615321     1.607677     1.600034     1.592391     1.584748     1.577105     1.569462     1.561819
      1.554176     1.546533     1.538890     1.531246     1.523603     1.515960     1.508317     1.500674     1.493031     1.485388
      1.477745     1.470102     1.462458     1.454815     1.447172     1.439529     1.431886     1.424243     1.416600     1.408957
      1.401314     1.393671     1.386027     1.378384     1.370741     1.363098     1.355455     1.347812     1.340169     1.332526
      1.324883     1.317240     1.309596     1.301953     1.294310     1.286667     1.279024     1.271381     1.263738     1.256095
      1.248452     1.240808     1.233165     1.225522     1.217879     1.210236     1.202593     1.194950     1.187307     1.179664
      1.172021     1.164377     1.156734     1.149091     1.141448     1.133805     1.126162     1.118519     1.110876     1.103233
      1.095590     1.087946     1.080303     1.072660     1.065017     1.057374     1.049731     1.042088     1.034445     1.026802
      1.019158     1.011515     1.003872     0.996229     0.988586     0.980943     0.973300     0.965657     0.958014     0.950371
      0.942727     0.935084     0.927441     0.919798     0.912155     0.904512     0.896869     0.889226     0.881583     0.873940
      0.866296     0.858653     0.851010     0.843367     0.835724     0.828081     0.820438     0.812795     0.805152     0.797508
      0.789865     0.782222     0.774579     0.766936     0.759293     0.751650     0.744007     0.736364     0.728721     0.721077
      0.713434     0.705791     0.698148     0.690505     0.682862     0.675219     0.667576     0.659933     0.652290     0.644646
      0.637003     0.629360     0.621717     0.614074     0.606431     0.598788     0.591145     0.583502     0.575858     0.568215
      0.560572     0.552929     0.545286     0.537643     0.530000     0.522357     0.514714     0.507071     0.499427     0.491784
      0.484141     0.476498     0.468855     0.461212     0.453569     0.445925     0.438282     0.430639     0.422996     0.415353
      0.407710     0.400067     0.392424     0.384780     0.377137     0.369494     0.361851     0.354208     0.346565     0.338922
      0.331278     0.323635     0.315992     0.308349     0.300706     0.293063     0.285420     0.277777     0.270133     0.262490
      0.254847     0.247204     0.239561     0.231918     0.224275     0.216631     0.208988     0.201345
 NY phased data points follow
   2.07349E+00 -1.21711E+00  4.99386E+00  2.53766E+00  3.15228E+00  7.10634E+00  3.00549E+00  6.82057E+00  7.14739E+00  6.38079E+00
   1.06540E+01  6.64951E+00  1.04298E+01  7.38111E+00  1.05186E+01  4.60430E+00  9.59330E+00  1.34803E+00  4.65851E+00  2.26186E+00
   2.96700E+00  2.76059E+00  2.60249E+00 -9.03773E-01  5.82145E+00  3.19995E+00  2.73172E+00  1.89725E+00  5.33485E+00  7.50989E-01
   2.28852E+00  4.78605E+00  5.05720E+00  5.24507E+00  3.40940E+00  3.95646E+00  5.99287E+00  3.56847E+00  2.50248E+00  4.17840E+00
   6.21014E+00  6.89383E+00  5.68560E+00  5.25015E+00  6.02653E+00  2.67510E+00  5.20818E+00  5.47436E+00  4.56353E+00  5.80011E+00
   3.65139E+00  7.49439E+00  8.57875E+00  1.46801E+00  2.03527E+00  2.24631E+00  2.60358E+00  2.95541E+00  1.07407E+00  2.07673E+00
   3.88011E+00  7.04262E+00  5.05374E+00  4.20864E+00 -1.56919E+00  3.00762E-01  2.53588E+00  9.51170E-01  8.57810E-01 -5.72898E-01
   1.40740E+00 -2.86531E+00  2.95153E+00 -7.53060E-01  3.21878E+00  3.19235E+00  7.32692E-01 -3.64918E+00  2.53920E+00  1.51600E+00
   9.75081E-01  4.29263E+00 -2.74232E+00 -2.22821E-01 -2.90766E+00 -2.08929E+00 -3.36090E-01 -1.03324E+00 -1.64870E+00  1.34710E-01
   7.68037E-01  2.28067E-01  1.50778E+00  3.64174E-01 -2.36771E+00  1.64213E+00  3.20219E+00  4.01243E+00  5.63430E+00  7.76717E+00
   1.46836E+01  9.21247E+00  1.79731E+01  2.02974E+01  1.86989E+01  1.61288E+01  1.67292E+01  1.03670E+01  8.35880E+00  6.61742E+00
   2.45054E+00  3.41295E+00  1.86296E+00  5.27093E+00 -1.89222E+00 -2.67162E+00  4.79338E+00  1.85533E+00  4.34685E+00  1.20813E+00
   3.77648E+00  3.12452E+00  4.96094E+00  6.67368E+00  9.93521E+00  1.84347E+01  1.60969E+01  2.15397E+01  2.01640E+01  1.80878E+01
   1.66659E+01  1.14022E+01  9.48465E+00  9.35203E+00  5.98284E+00  5.23401E+00  1.56940E+00  1.26476E+00  3.02871E+00 -1.35363E+00
   2.15425E+00 -4.36308E+00  4.33398E+00  9.00988E-01  3.13497E-01  2.96508E+00  5.28263E+00 -9.71550E-01  5.98524E-01  1.83865E-01
   5.73495E-01  4.91309E+00  2.39837E-01  7.01051E-01  1.63034E+00  9.44213E-01 -7.00278E-01 -1.87609E+00  1.01995E+00 -5.27276E+00
   9.52496E-01  3.16644E+00 -4.60297E+00 -4.06567E+00 -7.15770E-01 -2.18779E+00 -7.05611E-01  1.19268E+00  7.58700E-01 -4.37887E+00
  -6.74012E+00 -8.58545E+00 -3.49052E+00 -6.53376E+00 -9.06773E+00 -4.61554E+00 -7.35888E+00 -7.20935E+00 -9.56905E+00 -6.63942E+00
  -9.40221E+00 -7.25392E+00 -8.96384E+00 -6.77899E+00 -4.68388E+00 -5.39097E+00 -3.94259E+00 -3.41670E+00 -7.53626E+00  8.10573E-01
  -2.27155E+00 -2.29790E+00 -3.76738E+00 -4.62069E+00 -3.38594E+00 -2.05095E+00  1.37254E-01 -6.77287E+00 -3.58705E+00 -2.44437E+00
  -7.77555E-01 -5.89936E+00 -2.68670E+00 -1.93763E+00 -1.35231E+00 -1.21293E+00 -1.21805E+00  4.17413E-01 -3.69030E+00 -7.99112E+00
  -2.83238E+00  8.73258E-01  1.78275E+00  9.41133E-01  2.04935E+00 -8.38719E-02 -4.14513E-01 -2.58824E+00  1.93038E+00 -4.57204E+00
  -2.30611E+00 -4.97828E+00 -1.85325E-01  2.73984E+00 -2.06902E+00  5.27954E+00 -6.11278E-01  3.74676E+00 -1.24584E+00  3.63432E+00
   4.03347E+00  4.17990E+00  4.56756E+00  2.42530E+00  1.10520E+00  2.38991E+00  2.58267E+00  7.01744E+00 -4.74551E-01 -1.14857E+00
  -1.98003E+00  2.75127E-01  5.80325E+00  3.60693E+00  5.57386E+00  3.82817E+00  1.00427E+01  5.94863E+00  9.64093E+00  1.18197E+01
   1.33093E+01  1.06596E+01  1.61652E+01  1.57890E+01  1.72122E+01  2.18522E+01  2.30297E+01  2.62038E+01  3.47727E+01  3.74786E+01
   3.88971E+01  3.32507E+01  2.20056E+01  1.47736E+01  1.14137E+01  8.54771E+00 -2.06619E+00  1.10629E+00 -4.58588E+00 -4.86443E+00
   2.07969E+00 -2.94786E-01 -4.07120E+00 -1.24862E+00  1.26448E+00  1.96131E+00 -3.38025E-01 -2.70693E+00 -8.03476E-01  5.89346E-01
   1.49087E+00 -2.00208E-02  1.77036E+00 -2.68681E+00 -2.93750E+00 -5.25345E+00 -2.03083E+00 -1.59395E+00 -4.80473E-01 -1.63054E-01
   3.26253E+00 -3.67991E+00 -5.27708E+00  4.86785E-01 -5.95076E+00 -1.82367E+00  2.81441E-01 -2.83469E-02  4.97365E+00 -1.04806E-03
  -1.89707E+00  1.37998E-01 -6.35326E-01 -3.99569E+00  2.04215E+00  2.04821E+00 -3.52984E+00 -2.64711E+00  1.03352E+00  2.39754E+00
   2.98771E-02 -2.51282E+00 -9.34325E-02 -3.80365E+00  2.25804E+00  3.32517E+00 -1.67212E+00 -1.83018E+00  3.44236E+00 -2.12375E+00
   1.07444E-01 -3.26563E+00 -3.86106E+00  1.87197E+00 -2.37574E+00 -5.44628E+00 -4.87457E+00 -7.94990E+00 -6.14909E+00 -2.44639E+00
  -5.05247E+00 -4.75685E+00 -4.72156E+00 -4.01107E-01 -2.68388E-02 -2.24730E-01  4.44722E+00  3.28916E+00  7.98034E+00  5.03514E+00
   1.27463E+01  1.28216E+01  1.09912E+01  1.44611E+01  1.29292E+01  1.85619E+01  1.71746E+01  1.70365E+01  1.90294E+01  1.96188E+01
   1.80114E+01  2.18287E+01  2.45404E+01  2.66111E+01  2.35050E+01  2.33238E+01  2.31679E+01  1.93871E+01  2.25738E+01  2.07887E+01
   1.83968E+01  2.05203E+01  2.10970E+01  2.06968E+01  2.32907E+01  1.56225E+01  1.54434E+01  1.59331E+01  1.63798E+01  1.38554E+01
   1.02567E+01  1.33005E+01  1.40339E+01  6.09066E+00  1.25684E+01  1.30063E+01  9.77990E+00  1.32283E+01  7.64907E+00  8.95368E+00
   8.55307E+00  8.21695E+00  9.04961E+00  3.82477E+00  9.36170E+00  1.30667E+01  3.47245E+00  7.89162E+00  8.34223E+00  7.94605E+00
   5.74017E+00  5.55848E+00  5.00315E+00  6.54188E+00  9.12615E+00  6.73058E+00  7.21795E+00  9.80942E+00  7.19975E+00  5.71320E+00
   7.57953E+00  7.84912E+00  6.43624E+00  3.27916E+00  1.32100E+00  5.11217E+00  7.26916E+00  8.32804E+00  3.24574E+00  2.85156E+00
   3.11098E+00 -2.21505E+00 -2.84016E+00 -1.83361E+00 -7.91224E-01 -9.79169E-01 -1.09831E+00 -3.57299E+00 -3.26260E+00 -3.49265E+00
  -6.22424E-01 -6.27021E-01 -1.88594E+00 -3.10112E+00 -4.84604E+00 -3.72932E-01 -2.02986E+00 -2.51895E+00  1.19788E+00 -2.97537E+00
  -1.55917E+00 -4.65855E+00 -4.29571E+00 -3.18963E-02 -4.67400E+00 -3.72286E+00 -5.43816E+00 -4.47647E+00 -6.90805E+00 -3.44969E+00
  -2.17899E+00 -6.02079E+00 -4.07486E+00 -1.52176E+00 -6.04605E-01 -2.80809E+00 -4.71632E+00 -4.09833E+00  1.20180E-01 -3.20920E+00
  -2.44451E+00 -3.06281E+00 -1.31919E+00 -5.01358E+00 -7.46017E+00 -1.59824E-01 -1.25041E+00 -5.59190E-01 -1.72695E+00 -6.31270E+00
  -7.42096E+00 -7.29048E+00 -1.18399E+00 -3.47891E+00 -3.01054E+00 -2.74282E+00 -1.80735E+00 -3.71450E+00 -3.59646E+00  3.15999E-02
  -4.40557E+00 -4.61195E+00 -2.19961E+00 -3.91461E+00  1.27230E+00 -8.20855E+00 -6.07474E+00 -4.40094E+00 -2.07741E+00 -1.90995E+00
   6.63100E-01  2.52296E+00 -7.87776E+00 -2.24646E+00 -2.80632E+00 -2.93992E+00 -4.90463E+00 -4.53803E+00 -4.83593E+00 -2.89242E+00
  -2.69611E+00  5.25023E-01 -2.38489E+00 -3.48015E+00 -1.88363E+00 -7.29539E+00 -5.22801E+00 -3.94340E+00
 NY points of the fit to the data follow
   2.45156E+00  2.17798E+00  2.10836E+00  2.22117E+00  2.58594E+00  3.41675E+00  4.59245E+00  5.88152E+00  7.18746E+00  8.43936E+00
   9.50761E+00  1.01686E+01  1.02252E+01  9.63136E+00  8.52233E+00  7.12976E+00  5.68408E+00  4.35826E+00  3.30662E+00  2.61660E+00
   2.25998E+00  2.08658E+00  1.98678E+00  2.03791E+00  2.20500E+00  2.41775E+00  2.74701E+00  3.25333E+00  3.88921E+00  4.52591E+00
   5.03710E+00  5.34163E+00  5.38624E+00  5.15892E+00  4.67451E+00  3.99963E+00  3.27509E+00  2.63714E+00  2.12259E+00  1.76385E+00
   1.70083E+00  2.04273E+00  2.70528E+00  3.53305E+00  4.44293E+00  5.35198E+00  6.10246E+00  6.47747E+00  6.32707E+00  5.66884E+00
   4.65637E+00  3.49302E+00  2.40226E+00  1.57417E+00  1.12446E+00  1.09370E+00  1.38028E+00  1.80921E+00  2.22106E+00  2.50915E+00
   2.61925E+00  2.52541E+00  2.26326E+00  1.90123E+00  1.52677E+00  1.25204E+00  1.12944E+00  1.16430E+00  1.35081E+00  1.64876E+00
   1.97307E+00  2.24216E+00  2.40284E+00  2.43465E+00  2.34812E+00  2.17289E+00  1.93643E+00  1.66345E+00  1.39180E+00  1.17117E+00
   9.90607E-01  8.06110E-01  5.88263E-01  3.38753E-01  5.72782E-02 -2.61729E-01 -6.09048E-01 -9.36368E-01 -1.17418E+00 -1.25593E+00
  -1.16346E+00 -9.36051E-01 -6.16422E-01 -2.61000E-01  9.78518E-02  5.23359E-01  1.48934E+00  3.43020E+00  5.92061E+00  8.72279E+00
   1.17668E+01  1.48628E+01  1.75316E+01  1.91074E+01  1.91187E+01  1.75564E+01  1.48137E+01  1.14379E+01  7.94096E+00  4.76364E+00
   2.32295E+00  8.57663E-01  2.37266E-01  6.78177E-02  3.16064E-02  3.89337E-02  7.01393E-02  1.29742E-01  2.53576E-01  5.85583E-01
   1.55703E+00  3.48070E+00  6.04785E+00  8.96879E+00  1.21141E+01  1.52582E+01  1.79559E+01  1.96143E+01  1.97696E+01  1.83808E+01
   1.57940E+01  1.25044E+01  9.00263E+00  5.72805E+00  3.07730E+00  1.31469E+00  3.83412E-01 -1.54434E-03 -1.03074E-01 -4.20289E-02
   1.14849E-01  2.98413E-01  4.40944E-01  4.89644E-01  4.27348E-01  2.73534E-01  6.46755E-02 -1.69174E-01 -4.03575E-01 -6.13040E-01
  -7.89094E-01 -9.33414E-01 -1.04632E+00 -1.14972E+00 -1.26228E+00 -1.36420E+00 -1.44688E+00 -1.51115E+00 -1.56965E+00 -1.65588E+00
  -1.76139E+00 -1.86341E+00 -1.95820E+00 -2.06538E+00 -2.19311E+00 -2.33390E+00 -2.48223E+00 -2.63727E+00 -2.81421E+00 -3.02280E+00
  -3.20552E+00 -3.32425E+00 -3.39511E+00 -3.45749E+00 -3.54068E+00 -3.61682E+00 -3.66200E+00 -3.66535E+00 -3.65247E+00 -3.65122E+00
  -3.65778E+00 -3.62240E+00 -3.52852E+00 -3.37539E+00 -3.14586E+00 -2.80721E+00 -2.35655E+00 -1.84238E+00 -1.32316E+00 -8.52957E-01
  -5.01079E-01 -3.45947E-01 -3.79548E-01 -5.59552E-01 -8.51055E-01 -1.19245E+00 -1.48064E+00 -1.63239E+00 -1.61875E+00 -1.44932E+00
  -1.18415E+00 -8.91757E-01 -6.52590E-01 -5.24441E-01 -5.34833E-01 -7.05957E-01 -1.01658E+00 -1.36433E+00 -1.64074E+00 -1.75479E+00
  -1.71462E+00 -1.52855E+00 -1.20838E+00 -8.12750E-01 -4.58730E-01 -2.91342E-01 -3.70098E-01 -6.40725E-01 -1.02187E+00 -1.43248E+00
  -1.76366E+00 -1.90478E+00 -1.76627E+00 -1.34653E+00 -7.71425E-01 -1.89014E-01  3.09346E-01  6.78753E-01  9.13058E-01  1.03864E+00
   1.12829E+00  1.28465E+00  1.55979E+00  1.93254E+00  2.34501E+00  2.70897E+00  2.94986E+00  3.04394E+00  3.01010E+00  2.91102E+00
   2.83871E+00  2.89838E+00  3.15452E+00  3.60923E+00  4.21041E+00  4.87419E+00  5.51081E+00  6.05165E+00  6.58588E+00  7.47906E+00
   8.72129E+00  1.01781E+01  1.21336E+01  1.53618E+01  1.94547E+01  2.36043E+01  2.73429E+01  3.03994E+01  3.24903E+01  3.31804E+01
   3.20754E+01  2.91596E+01  2.49186E+01  2.00962E+01  1.53262E+01  1.09750E+01  7.33337E+00  4.72353E+00  3.19793E+00  2.42476E+00
   1.96930E+00  1.63610E+00  1.37269E+00  1.14420E+00  9.21449E-01  6.86974E-01  4.36427E-01  1.74704E-01 -8.83479E-02 -3.35341E-01
  -5.50971E-01 -7.26647E-01 -8.60396E-01 -9.59611E-01 -1.03690E+00 -1.09825E+00 -1.14666E+00 -1.18394E+00 -1.20905E+00 -1.21872E+00
  -1.20853E+00 -1.17776E+00 -1.13280E+00 -1.08009E+00 -1.02441E+00 -9.70162E-01 -9.20380E-01 -8.76421E-01 -8.36979E-01 -7.98672E-01
  -7.58415E-01 -7.16394E-01 -6.75960E-01 -6.41186E-01 -6.15119E-01 -6.00169E-01 -5.97807E-01 -6.08005E-01 -6.28482E-01 -6.55717E-01
  -6.85981E-01 -7.15697E-01 -7.40959E-01 -7.57628E-01 -7.60710E-01 -7.44083E-01 -6.99279E-01 -6.13390E-01 -4.61703E-01 -1.84938E-01
   2.63674E-01  7.17164E-01  1.06831E+00  1.29420E+00  1.34748E+00  1.13795E+00  5.64623E-01 -3.68594E-01 -1.36420E+00 -2.14381E+00
  -2.56647E+00 -2.52267E+00 -1.92947E+00 -7.57764E-01  8.89902E-01  2.75449E+00  4.54089E+00  6.06770E+00  7.30827E+00  8.30884E+00
   9.13242E+00  9.86547E+00  1.06297E+01  1.15318E+01  1.26010E+01  1.37892E+01  1.50400E+01  1.63136E+01  1.75768E+01  1.87985E+01
   1.99488E+01  2.09993E+01  2.19236E+01  2.26984E+01  2.33042E+01  2.37259E+01  2.39540E+01  2.39843E+01  2.38184E+01  2.34635E+01
   2.29318E+01  2.22401E+01  2.14090E+01  2.04617E+01  1.94231E+01  1.83188E+01  1.71745E+01  1.60145E+01  1.48617E+01  1.37365E+01
   1.26571E+01  1.16385E+01  1.06934E+01  9.83147E+00  9.06010E+00  8.38407E+00  7.80618E+00  7.32718E+00  6.94619E+00  6.66056E+00
   6.46621E+00  6.35747E+00  6.32737E+00  6.36743E+00  6.46797E+00  6.61792E+00  6.80522E+00  7.01685E+00  7.23928E+00  7.45871E+00
   7.66159E+00  7.83494E+00  7.96700E+00  8.04748E+00  8.06823E+00  8.02329E+00  7.90928E+00  7.72534E+00  7.47322E+00  7.15697E+00
   6.78281E+00  6.35851E+00  5.89315E+00  5.39644E+00  4.87845E+00  4.34894E+00  3.81720E+00  3.29148E+00  2.77901E+00  2.28564E+00
   1.81603E+00  1.37342E+00  9.59993E-01  5.76694E-01  2.23664E-01 -9.97994E-02 -3.94863E-01 -6.63202E-01 -9.06667E-01 -1.12736E+00
  -1.32733E+00 -1.50868E+00 -1.67332E+00 -1.82310E+00 -1.95968E+00 -2.08463E+00 -2.19927E+00 -2.30484E+00 -2.40235E+00 -2.49276E+00
  -2.57684E+00 -2.65536E+00 -2.72887E+00 -2.79795E+00 -2.86300E+00 -2.92446E+00 -2.98265E+00 -3.03794E+00 -3.09054E+00 -3.14073E+00
  -3.18865E+00 -3.23457E+00 -3.27859E+00 -3.32093E+00 -3.36165E+00 -3.40092E+00 -3.43879E+00 -3.47542E+00 -3.51086E+00 -3.54523E+00
  -3.57855E+00 -3.61093E+00 -3.64238E+00 -3.67301E+00 -3.70283E+00 -3.73194E+00 -3.76031E+00 -3.78803E+00 -3.81511E+00 -3.84162E+00
  -3.86756E+00 -3.89300E+00 -3.91790E+00 -3.94234E+00 -3.96632E+00 -3.98990E+00 -4.01305E+00 -4.03583E+00 -4.05821E+00 -4.08026E+00
  -4.10196E+00 -4.12337E+00 -4.14445E+00 -4.16525E+00 -4.18575E+00 -4.20601E+00 -4.22600E+00 -4.24578E+00 -4.26530E+00 -4.28461E+00
  -4.30369E+00 -4.32259E+00 -4.34129E+00 -4.35983E+00 -4.37817E+00 -4.39636E+00 -4.41437E+00 -4.43226E+00 -4.45000E+00 -4.46762E+00
  -4.48508E+00 -4.50245E+00 -4.51970E+00 -4.53687E+00 -4.55393E+00 -4.57092E+00 -4.58781E+00 -4.60466E+00
 NY background values follow
    -4.483E-01   -4.583E-01   -4.683E-01   -4.783E-01   -4.882E-01   -4.982E-01   -5.082E-01   -5.182E-01   -5.282E-01   -5.381E-01
    -5.481E-01   -5.581E-01   -5.681E-01   -5.781E-01   -5.880E-01   -5.980E-01   -6.080E-01   -6.180E-01   -6.280E-01   -6.379E-01
    -6.479E-01   -6.579E-01   -6.679E-01   -6.779E-01   -6.879E-01   -6.978E-01   -7.078E-01   -7.178E-01   -7.278E-01   -7.378E-01
    -7.478E-01   -7.578E-01   -7.677E-01   -7.777E-01   -7.877E-01   -7.977E-01   -8.077E-01   -8.177E-01   -8.277E-01   -8.377E-01
    -8.477E-01   -8.577E-01   -8.676E-01   -8.776E-01   -8.876E-01   -8.976E-01   -9.076E-01   -9.176E-01   -9.276E-01   -9.376E-01
    -9.476E-01   -9.576E-01   -9.676E-01   -9.776E-01   -9.875E-01   -9.975E-01   -1.008E+00   -1.018E+00   -1.028E+00   -1.038E+00
    -1.048E+00   -1.058E+00   -1.068E+00   -1.078E+00   -1.087E+00   -1.097E+00   -1.107E+00   -1.117E+00   -1.127E+00   -1.137E+00
    -1.147E+00   -1.157E+00   -1.167E+00   -1.177E+00   -1.187E+00   -1.197E+00   -1.207E+00   -1.217E+00   -1.227E+00   -1.237E+00
    -1.247E+00   -1.257E+00   -1.267E+00   -1.277E+00   -1.287E+00   -1.297E+00   -1.307E+00   -1.317E+00   -1.327E+00   -1.337E+00
    -1.347E+00   -1.357E+00   -1.367E+00   -1.377E+00   -1.387E+00   -1.397E+00   -1.407E+00   -1.417E+00   -1.427E+00   -1.437E+00
    -1.447E+00   -1.457E+00   -1.467E+00   -1.477E+00   -1.487E+00   -1.497E+00   -1.507E+00   -1.517E+00   -1.527E+00   -1.537E+00
    -1.547E+00   -1.557E+00   -1.567E+00   -1.577E+00   -1.587E+00   -1.597E+00   -1.607E+00   -1.617E+00   -1.627E+00   -1.637E+00
    -1.647E+00   -1.657E+00   -1.667E+00   -1.677E+00   -1.687E+00   -1.697E+00   -1.707E+00   -1.717E+00   -1.727E+00   -1.737E+00
    -1.747E+00   -1.757E+00   -1.767E+00   -1.777E+00   -1.787E+00   -1.797E+00   -1.807E+00   -1.817E+00   -1.827E+00   -1.837E+00
    -1.847E+00   -1.857E+00   -1.867E+00   -1.877E+00   -1.887E+00   -1.897E+00   -1.907E+00   -1.917E+00   -1.927E+00   -1.937E+00
    -1.947E+00   -1.957E+00   -1.967E+00   -1.977E+00   -1.987E+00   -1.997E+00   -2.007E+00   -2.017E+00   -2.027E+00   -2.037E+00
    -2.047E+00   -2.057E+00   -2.067E+00   -2.077E+00   -2.087E+00   -2.097E+00   -2.107E+00   -2.117E+00   -2.127E+00   -2.137E+00
    -2.147E+00   -2.157E+00   -2.167E+00   -2.177E+00   -2.187E+00   -2.197E+00   -2.207E+00   -2.217E+00   -2.227E+00   -2.237E+00
    -2.247E+00   -2.257E+00   -2.267E+00   -2.277E+00   -2.287E+00   -2.297E+00   -2.307E+00   -2.317E+00   -2.327E+00   -2.337E+00
    -2.347E+00   -2.357E+00   -2.367E+00   -2.377E+00   -2.387E+00   -2.396E+00   -2.406E+00   -2.416E+00   -2.426E+00   -2.436E+00
    -2.446E+00   -2.456E+00   -2.466E+00   -2.476E+00   -2.486E+00   -2.496E+00   -2.506E+00   -2.516E+00   -2.526E+00   -2.536E+00
    -2.546E+00   -2.556E+00   -2.566E+00   -2.576E+00   -2.586E+00   -2.596E+00   -2.606E+00   -2.616E+00   -2.626E+00   -2.636E+00
    -2.646E+00   -2.656E+00   -2.666E+00   -2.676E+00   -2.685E+00   -2.695E+00   -2.705E+00   -2.715E+00   -2.725E+00   -2.735E+00
    -2.745E+00   -2.755E+00   -2.765E+00   -2.775E+00   -2.785E+00   -2.795E+00   -2.805E+00   -2.815E+00   -2.825E+00   -2.835E+00
    -2.845E+00   -2.855E+00   -2.865E+00   -2.875E+00   -2.884E+00   -2.894E+00   -2.904E+00   -2.914E+00   -2.924E+00   -2.934E+00
    -2.944E+00   -2.954E+00   -2.964E+00   -2.974E+00   -2.984E+00   -2.994E+00   -3.004E+00   -3.014E+00   -3.024E+00   -3.034E+00
    -3.043E+00   -3.053E+00   -3.063E+00   -3.073E+00   -3.083E+00   -3.093E+00   -3.103E+00   -3.113E+00   -3.123E+00   -3.133E+00
    -3.143E+00   -3.153E+00   -3.163E+00   -3.172E+00   -3.182E+00   -3.192E+00   -3.202E+00   -3.212E+00   -3.222E+00   -3.232E+00
    -3.242E+00   -3.252E+00   -3.262E+00   -3.272E+00   -3.281E+00   -3.291E+00   -3.301E+00   -3.311E+00   -3.321E+00   -3.331E+00
    -3.341E+00   -3.351E+00   -3.361E+00   -3.371E+00   -3.381E+00   -3.390E+00   -3.400E+00   -3.410E+00   -3.420E+00   -3.430E+00
    -3.440E+00   -3.450E+00   -3.460E+00   -3.470E+00   -3.479E+00   -3.489E+00   -3.499E+00   -3.509E+00   -3.519E+00   -3.529E+00
    -3.539E+00   -3.549E+00   -3.558E+00   -3.568E+00   -3.578E+00   -3.588E+00   -3.598E+00   -3.608E+00   -3.618E+00   -3.628E+00
    -3.637E+00   -3.647E+00   -3.657E+00   -3.667E+00   -3.677E+00   -3.687E+00   -3.697E+00   -3.707E+00   -3.716E+00   -3.726E+00
    -3.736E+00   -3.746E+00   -3.756E+00   -3.766E+00   -3.776E+00   -3.785E+00   -3.795E+00   -3.805E+00   -3.815E+00   -3.825E+00
    -3.835E+00   -3.844E+00   -3.854E+00   -3.864E+00   -3.874E+00   -3.884E+00   -3.894E+00   -3.904E+00   -3.913E+00   -3.923E+00
    -3.933E+00   -3.943E+00   -3.953E+00   -3.963E+00   -3.972E+00   -3.982E+00   -3.992E+00   -4.002E+00   -4.012E+00   -4.021E+00
    -4.031E+00   -4.041E+00   -4.051E+00   -4.061E+00   -4.071E+00   -4.080E+00   -4.090E+00   -4.100E+00   -4.110E+00   -4.120E+00
    -4.129E+00   -4.139E+00   -4.149E+00   -4.159E+00   -4.169E+00   -4.178E+00   -4.188E+00   -4.198E+00   -4.208E+00   -4.218E+00
    -4.227E+00   -4.237E+00   -4.247E+00   -4.257E+00   -4.267E+00   -4.276E+00   -4.286E+00   -4.296E+00   -4.306E+00   -4.315E+00
    -4.325E+00   -4.335E+00   -4.345E+00   -4.355E+00   -4.364E+00   -4.374E+00   -4.384E+00   -4.394E+00   -4.403E+00   -4.413E+00
    -4.423E+00   -4.433E+00   -4.442E+00   -4.452E+00   -4.462E+00   -4.472E+00   -4.481E+00   -4.491E+00   -4.501E+00   -4.511E+00
    -4.520E+00   -4.530E+00   -4.540E+00   -4.550E+00   -4.559E+00   -4.569E+00   -4.579E+00   -4.589E+00   -4.598E+00   -4.608E+00
    -4.618E+00   -4.628E+00   -4.637E+00   -4.647E+00   -4.657E+00   -4.667E+00   -4.676E+00   -4.686E+00   -4.696E+00   -4.705E+00
    -4.715E+00   -4.725E+00   -4.735E+00   -4.744E+00   -4.754E+00   -4.764E+00   -4.773E+00   -4.783E+00   -4.793E+00   -4.802E+00
    -4.812E+00   -4.822E+00   -4.832E+00   -4.841E+00   -4.851E+00   -4.861E+00   -4.870E+00   -4.880E+00   -4.890E+00   -4.899E+00
    -4.909E+00   -4.919E+00   -4.928E+00   -4.938E+00   -4.948E+00   -4.957E+00   -4.967E+00   -4.977E+00   -4.986E+00   -4.996E+00
    -5.006E+00   -5.015E+00   -5.025E+00   -5.035E+00   -5.044E+00   -5.054E+00   -5.064E+00   -5.073E+00   -5.083E+00   -5.093E+00
    -5.102E+00   -5.112E+00   -5.122E+00   -5.131E+00   -5.141E+00   -5.151E+00   -5.160E+00   -5.170E+00   -5.179E+00   -5.189E+00
    -5.199E+00   -5.208E+00   -5.218E+00   -5.228E+00   -5.237E+00   -5.247E+00   -5.256E+00   -5.266E+00   -5.276E+00   -5.285E+00
    -5.295E+00   -5.305E+00   -5.314E+00   -5.324E+00   -5.333E+00   -5.343E+00   -5.353E+00   -5.362E+00
 Ala      Conc. = 3.09E+02
