 LCModel (Version 6.3-1L) Copyright: S.W. Provencher.          Ref.: Magn. Reson. Med. 30:672-679 (1993).                
 Slice#3 Row#6 Col#1  K_02_press_1_raw_act
 36 lines in following concentration table = NCONC+1
    Conc.  %SD /Cr+PCr  Metabolite                                         
    0.000 999%   0.000 Ala                                                 
   12.437  39%   0.167 Asp                                                 
    0.000 999%   0.000 Cr                                                  
   74.574  21%   1.000 PCr                                                 
    7.170  41% 9.6E-02 GABA                                                
    7.256  40% 9.7E-02 Glc                                                 
    0.000 999%   0.000 Gln                                                 
  104.890  49%   1.407 Glu                                                 
   10.212 231%   0.137 GPC                                                 
   17.938 132%   0.241 PCh                                                 
    0.000 999%   0.000 GSH                                                 
  107.172  59%   1.437 Ins                                                 
    0.000 999%   0.000 Lac                                                 
   85.325  20%   1.144 NAA                                                 
    0.000 999%   0.000 NAAG                                                
    2.438  40% 3.3E-02 Scyllo                                              
   12.030  40%   0.161 Tau                                                 
    5.519 113% 7.4E-02 -CrCH2                                              
   28.150  22%   0.377 GPC+PCh                                             
   85.325  20%   1.144 NAA+NAAG                                            
   74.574  21%   1.000 Cr+PCr                                              
  104.890  49%   1.407 Glu+Gln                                             
    0.000 999%   0.000 Lip13a                                              
    0.000 999%   0.000 Lip13b                                              
    2.347 795% 3.1E-02 Lip09                                               
   21.352 151%   0.286 MM09                                                
    0.000 999%   0.000 Lip20                                               
    0.000 999%   0.000 MM20                                                
    6.169 294% 8.3E-02 MM12                                                
    0.000 999%   0.000 MM14                                                
   27.960 154%   0.375 MM17                                                
    0.000 999%   0.000 Lip13a+Lip13b                                       
    6.169 294% 8.3E-02 MM14+Lip13a+Lip13b+MM12                             
   23.699 151%   0.318 MM09+Lip09                                          
    0.000 999%   0.000 MM20+Lip20                                          
   6 lines in following misc. output table
  FWHM = 0.038 ppm    S/N =   2                                            
  Data shift = 0.008 ppm                                                   
  Ph:  42 deg     -11.8 deg/ppm                                            
  alphaB,S = 3.5E-01,   2.3E+01                                            
   14 spline knots.   Ns = 5(1)                                            
   2 inflections.     1 extrema                                            
  498 points on ppm-axis = NY
      4.000000     3.992357     3.984714     3.977070     3.969427     3.961784     3.954141     3.946497     3.938854     3.931211
      3.923568     3.915925     3.908281     3.900638     3.892995     3.885352     3.877708     3.870065     3.862422     3.854779
      3.847136     3.839492     3.831849     3.824206     3.816563     3.808919     3.801276     3.793633     3.785990     3.778347
      3.770703     3.763060     3.755417     3.747774     3.740130     3.732487     3.724844     3.717201     3.709558     3.701914
      3.694271     3.686628     3.678985     3.671341     3.663698     3.656055     3.648412     3.640769     3.633125     3.625482
      3.617839     3.610196     3.602552     3.594909     3.587266     3.579623     3.571980     3.564336     3.556693     3.549050
      3.541407     3.533763     3.526120     3.518477     3.510834     3.503191     3.495547     3.487904     3.480261     3.472618
      3.464974     3.457331     3.449688     3.442045     3.434402     3.426758     3.419115     3.411472     3.403829     3.396185
      3.388542     3.380899     3.373256     3.365613     3.357969     3.350326     3.342683     3.335040     3.327396     3.319753
      3.312110     3.304467     3.296824     3.289180     3.281537     3.273894     3.266251     3.258607     3.250964     3.243321
      3.235678     3.228034     3.220391     3.212748     3.205105     3.197462     3.189818     3.182175     3.174532     3.166889
      3.159245     3.151602     3.143959     3.136316     3.128673     3.121029     3.113386     3.105743     3.098100     3.090456
      3.082813     3.075170     3.067527     3.059884     3.052240     3.044597     3.036954     3.029311     3.021667     3.014024
      3.006381     2.998738     2.991095     2.983451     2.975808     2.968165     2.960522     2.952878     2.945235     2.937592
      2.929949     2.922306     2.914662     2.907019     2.899376     2.891733     2.884089     2.876446     2.868803     2.861160
      2.853517     2.845873     2.838230     2.830587     2.822944     2.815300     2.807657     2.800014     2.792371     2.784728
      2.777084     2.769441     2.761798     2.754155     2.746511     2.738868     2.731225     2.723582     2.715939     2.708295
      2.700652     2.693009     2.685366     2.677722     2.670079     2.662436     2.654793     2.647150     2.639506     2.631863
      2.624220     2.616577     2.608933     2.601290     2.593647     2.586004     2.578361     2.570717     2.563074     2.555431
      2.547788     2.540144     2.532501     2.524858     2.517215     2.509572     2.501928     2.494285     2.486642     2.478999
      2.471355     2.463712     2.456069     2.448426     2.440783     2.433139     2.425496     2.417853     2.410210     2.402566
      2.394923     2.387280     2.379637     2.371994     2.364350     2.356707     2.349064     2.341421     2.333777     2.326134
      2.318491     2.310848     2.303205     2.295561     2.287918     2.280275     2.272632     2.264988     2.257345     2.249702
      2.242059     2.234416     2.226772     2.219129     2.211486     2.203843     2.196199     2.188556     2.180913     2.173270
      2.165627     2.157983     2.150340     2.142697     2.135054     2.127410     2.119767     2.112124     2.104481     2.096838
      2.089194     2.081551     2.073908     2.066265     2.058621     2.050978     2.043335     2.035692     2.028049     2.020405
      2.012762     2.005119     1.997476     1.989833     1.982190     1.974546     1.966903     1.959260     1.951617     1.943974
      1.936331     1.928688     1.921045     1.913402     1.905759     1.898115     1.890472     1.882829     1.875186     1.867543
      1.859900     1.852257     1.844614     1.836971     1.829327     1.821684     1.814041     1.806398     1.798755     1.791112
      1.783469     1.775826     1.768183     1.760540     1.752896     1.745253     1.737610     1.729967     1.722324     1.714681
      1.707038     1.699395     1.691752     1.684108     1.676465     1.668822     1.661179     1.653536     1.645893     1.638250
      1.630607     1.622964     1.615321     1.607677     1.600034     1.592391     1.584748     1.577105     1.569462     1.561819
      1.554176     1.546533     1.538890     1.531246     1.523603     1.515960     1.508317     1.500674     1.493031     1.485388
      1.477745     1.470102     1.462458     1.454815     1.447172     1.439529     1.431886     1.424243     1.416600     1.408957
      1.401314     1.393671     1.386027     1.378384     1.370741     1.363098     1.355455     1.347812     1.340169     1.332526
      1.324883     1.317240     1.309596     1.301953     1.294310     1.286667     1.279024     1.271381     1.263738     1.256095
      1.248452     1.240808     1.233165     1.225522     1.217879     1.210236     1.202593     1.194950     1.187307     1.179664
      1.172021     1.164377     1.156734     1.149091     1.141448     1.133805     1.126162     1.118519     1.110876     1.103233
      1.095590     1.087946     1.080303     1.072660     1.065017     1.057374     1.049731     1.042088     1.034445     1.026802
      1.019158     1.011515     1.003872     0.996229     0.988586     0.980943     0.973300     0.965657     0.958014     0.950371
      0.942727     0.935084     0.927441     0.919798     0.912155     0.904512     0.896869     0.889226     0.881583     0.873940
      0.866296     0.858653     0.851010     0.843367     0.835724     0.828081     0.820438     0.812795     0.805152     0.797508
      0.789865     0.782222     0.774579     0.766936     0.759293     0.751650     0.744007     0.736364     0.728721     0.721077
      0.713434     0.705791     0.698148     0.690505     0.682862     0.675219     0.667576     0.659933     0.652290     0.644646
      0.637003     0.629360     0.621717     0.614074     0.606431     0.598788     0.591145     0.583502     0.575858     0.568215
      0.560572     0.552929     0.545286     0.537643     0.530000     0.522357     0.514714     0.507071     0.499427     0.491784
      0.484141     0.476498     0.468855     0.461212     0.453569     0.445925     0.438282     0.430639     0.422996     0.415353
      0.407710     0.400067     0.392424     0.384780     0.377137     0.369494     0.361851     0.354208     0.346565     0.338922
      0.331278     0.323635     0.315992     0.308349     0.300706     0.293063     0.285420     0.277777     0.270133     0.262490
      0.254847     0.247204     0.239561     0.231918     0.224275     0.216631     0.208988     0.201345
 NY phased data points follow
   2.15493E+01  2.18737E+01  2.11424E+01  2.53065E+01  2.05180E+01  2.19632E+01  2.14809E+01  2.09396E+01  2.06495E+01  2.54652E+01
   2.27974E+01  2.12787E+01  2.28786E+01  2.07926E+01  1.71412E+01  1.94957E+01  1.71220E+01  1.93371E+01  1.90619E+01  1.66963E+01
   1.54963E+01  1.75669E+01  1.59303E+01  1.77631E+01  1.69517E+01  1.72747E+01  1.78514E+01  1.52817E+01  1.44516E+01  1.36641E+01
   1.72699E+01  1.64134E+01  1.54441E+01  1.69400E+01  1.42631E+01  1.73008E+01  1.37486E+01  1.69710E+01  1.33197E+01  1.38968E+01
   1.52924E+01  1.16141E+01  1.53890E+01  1.33893E+01  1.54791E+01  1.40453E+01  1.55596E+01  1.44360E+01  1.20170E+01  1.26293E+01
   1.45986E+01  1.36599E+01  1.33054E+01  1.10141E+01  1.29435E+01  9.23324E+00  1.32874E+01  1.25140E+01  1.41554E+01  1.20979E+01
   1.40897E+01  1.33337E+01  1.21867E+01  8.76299E+00  1.04607E+01  1.31303E+01  1.21072E+01  8.26373E+00  1.41928E+01  1.47057E+01
   1.17432E+01  1.33056E+01  1.14573E+01  1.05460E+01  1.04449E+01  1.17041E+01  8.98285E+00  1.21165E+01  8.77344E+00  1.07201E+01
   1.01387E+01  1.23742E+01  1.02643E+01  1.07051E+01  9.15110E+00  1.15717E+01  1.12785E+01  8.73660E+00  9.19454E+00  1.11669E+01
   1.07716E+01  1.00317E+01  1.11963E+01  8.91860E+00  1.16890E+01  8.06941E+00  1.12986E+01  9.67341E+00  7.89422E+00  1.08226E+01
   1.02135E+01  1.21401E+01  1.40685E+01  1.46388E+01  1.39706E+01  1.58844E+01  1.24194E+01  1.25762E+01  1.12255E+01  1.02533E+01
   1.11752E+01  1.01073E+01  1.23642E+01  8.87704E+00  1.07799E+01  1.07032E+01  9.84832E+00  1.01693E+01  1.03778E+01  1.27547E+01
   1.23379E+01  9.49470E+00  8.97015E+00  1.04653E+01  1.09004E+01  1.36548E+01  1.56270E+01  1.77200E+01  1.64511E+01  1.59949E+01
   1.48648E+01  1.25508E+01  1.36179E+01  1.21961E+01  1.39845E+01  1.22345E+01  1.36787E+01  1.40443E+01  1.49541E+01  1.72435E+01
   1.56091E+01  1.49689E+01  1.41010E+01  1.17519E+01  1.36512E+01  1.81180E+01  1.69223E+01  1.63653E+01  1.60444E+01  1.65699E+01
   1.88467E+01  1.84013E+01  1.92761E+01  1.84698E+01  1.94029E+01  2.01850E+01  1.79225E+01  2.02473E+01  2.12679E+01  1.92728E+01
   2.05853E+01  2.06798E+01  1.87918E+01  1.97996E+01  1.98136E+01  2.24127E+01  2.28771E+01  2.17768E+01  2.34502E+01  2.21768E+01
   2.38249E+01  2.29644E+01  2.17383E+01  2.30626E+01  2.16929E+01  2.20165E+01  2.45617E+01  2.24175E+01  2.56917E+01  2.43904E+01
   2.55594E+01  2.72928E+01  2.64091E+01  2.43484E+01  2.40613E+01  2.63974E+01  2.56311E+01  2.79426E+01  2.81316E+01  2.84164E+01
   2.73244E+01  2.79350E+01  2.76799E+01  2.77236E+01  2.91757E+01  2.93523E+01  2.85315E+01  2.74536E+01  2.69004E+01  2.92861E+01
   2.88611E+01  2.73294E+01  3.07312E+01  2.94236E+01  2.99689E+01  3.02521E+01  2.89124E+01  2.98750E+01  2.98633E+01  2.81990E+01
   2.88227E+01  3.02262E+01  2.87928E+01  2.79664E+01  2.99858E+01  2.90884E+01  3.02940E+01  2.87559E+01  2.97827E+01  2.72219E+01
   2.93035E+01  2.73307E+01  2.55337E+01  2.72219E+01  2.82824E+01  2.77794E+01  2.72579E+01  2.91451E+01  2.82386E+01  3.06851E+01
   2.72421E+01  2.52649E+01  2.48988E+01  2.79268E+01  2.46405E+01  2.67452E+01  2.53348E+01  2.58434E+01  2.58583E+01  2.34108E+01
   2.50006E+01  2.31983E+01  2.30583E+01  2.48643E+01  2.31291E+01  2.41797E+01  2.14442E+01  2.19698E+01  2.21031E+01  2.39273E+01
   2.22385E+01  1.91343E+01  1.98448E+01  1.94559E+01  2.01570E+01  2.11177E+01  2.14019E+01  1.79790E+01  2.00094E+01  2.22002E+01
   2.75420E+01  2.53330E+01  2.28020E+01  1.92801E+01  1.78632E+01  1.49435E+01  1.54680E+01  1.62120E+01  1.59606E+01  1.57658E+01
   1.86470E+01  1.58249E+01  1.58504E+01  1.61379E+01  1.64309E+01  1.47901E+01  1.60075E+01  1.92289E+01  1.40423E+01  1.49774E+01
   1.46343E+01  1.42428E+01  1.35256E+01  1.54345E+01  1.65981E+01  1.43537E+01  1.22227E+01  1.39882E+01  1.58668E+01  1.24310E+01
   1.38854E+01  1.43456E+01  1.51420E+01  1.32491E+01  1.18656E+01  1.39432E+01  1.25414E+01  1.17004E+01  1.17701E+01  1.33160E+01
   1.40669E+01  1.49325E+01  1.51854E+01  1.23691E+01  1.15580E+01  1.46956E+01  1.08807E+01  1.06593E+01  1.26319E+01  1.04639E+01
   1.24268E+01  1.07592E+01  1.13811E+01  1.02104E+01  1.05329E+01  1.16491E+01  1.49265E+01  1.19486E+01  1.15861E+01  1.40529E+01
   1.08316E+01  1.10351E+01  9.98350E+00  1.05969E+01  1.26553E+01  9.99609E+00  7.08145E+00  1.15384E+01  8.49603E+00  1.03052E+01
   1.15788E+01  1.17252E+01  6.90606E+00  8.17623E+00  9.90808E+00  6.80347E+00  9.04710E+00  6.16887E+00  7.04364E+00  5.15381E+00
   5.49751E+00  6.14503E+00  7.89694E+00  5.96094E+00  7.01076E+00  7.87930E+00  8.10177E+00  7.52597E+00  7.55229E+00  1.21670E+01
   1.21920E+01  7.01288E+00  7.29111E+00  7.55137E+00  7.46512E+00  5.72368E+00  7.05183E+00  7.80111E+00  7.70909E+00  8.87725E+00
   9.42966E+00  4.45040E+00  7.89478E+00  7.42117E+00  9.08377E+00  5.20201E+00  8.79740E+00  6.89797E+00  6.01066E+00  7.86255E+00
   6.67686E+00  7.21243E+00  7.71197E+00  5.92273E+00  7.16682E+00  5.50290E+00  9.40670E+00  9.60990E+00  6.37116E+00  8.06326E+00
   7.85776E+00  7.84946E+00  5.63541E+00  8.82385E+00  7.78875E+00  7.74105E+00  7.08567E+00  7.78689E+00  5.36924E+00  5.16147E+00
   6.64358E+00  4.89415E+00  6.61127E+00  6.94753E+00  8.05801E+00  6.92019E+00  8.13979E+00  6.87098E+00  6.78204E+00  8.79530E+00
   7.27925E+00  8.60261E+00  8.79545E+00  7.28130E+00  4.99710E+00  4.65885E+00  5.06375E+00  6.74635E+00  9.04744E+00  7.25530E+00
   6.77978E+00  7.72152E+00  5.60580E+00  4.84961E+00  4.02359E+00  5.91693E+00  5.56118E+00  5.76205E+00  6.10955E+00  5.03765E+00
   5.50937E+00  6.93906E+00  4.00051E+00  6.50497E+00  4.81254E+00  5.56364E+00  4.00635E+00  5.60841E+00  5.86587E+00  7.33591E+00
   7.11377E+00  5.74583E+00  5.24919E+00  5.88132E+00  5.21933E+00  4.49661E+00  8.91136E+00  7.42873E+00  6.00775E+00  6.27602E+00
   6.19532E+00  5.21552E+00  5.75669E+00  7.34616E+00  6.92600E+00  6.78324E+00  4.51027E+00  7.07580E+00  4.93861E+00  5.03867E+00
   5.31848E+00  4.37633E+00  4.40276E+00  5.81784E+00  7.04932E+00  5.15400E+00  5.22508E+00  5.03562E+00  6.17350E+00  5.37620E+00
   5.73168E+00  6.39722E+00  6.06562E+00  7.57030E+00  3.92231E+00  4.76610E+00  4.54878E+00  7.33932E+00  5.63312E+00  3.64799E+00
   6.77244E+00  4.89100E+00  6.63039E+00  4.30110E+00  4.84206E+00  5.77113E+00  5.47227E+00  4.02467E+00  1.74022E+00  6.69344E+00
   4.66527E+00  6.88044E+00  3.14155E+00  4.27884E+00  6.73374E+00  5.40884E+00  6.38636E+00  4.35124E+00  5.10768E+00  5.23555E+00
   4.67525E+00  5.11490E+00  5.05658E+00  3.05863E+00  6.50419E+00  8.62545E+00  4.72429E+00  5.04931E+00
 NY points of the fit to the data follow
   2.14488E+01  2.12214E+01  2.10336E+01  2.08506E+01  2.06282E+01  2.04413E+01  2.05458E+01  2.10377E+01  2.17330E+01  2.22246E+01
   2.21626E+01  2.15131E+01  2.05212E+01  1.95387E+01  1.88737E+01  1.86175E+01  1.85173E+01  1.83366E+01  1.81278E+01  1.79222E+01
   1.77379E+01  1.75820E+01  1.74552E+01  1.73592E+01  1.72568E+01  1.70955E+01  1.68405E+01  1.65047E+01  1.61582E+01  1.59004E+01
   1.58119E+01  1.59003E+01  1.60633E+01  1.61457E+01  1.60520E+01  1.57788E+01  1.53801E+01  1.49555E+01  1.46127E+01  1.44046E+01
   1.43037E+01  1.42305E+01  1.41288E+01  1.40460E+01  1.40911E+01  1.43222E+01  1.46489E+01  1.48232E+01  1.46556E+01  1.41510E+01
   1.34811E+01  1.28757E+01  1.25146E+01  1.24104E+01  1.24066E+01  1.23858E+01  1.23557E+01  1.23618E+01  1.24160E+01  1.24703E+01
   1.24506E+01  1.23105E+01  1.20529E+01  1.17421E+01  1.14749E+01  1.13247E+01  1.12787E+01  1.12856E+01  1.13041E+01  1.13123E+01
   1.13042E+01  1.12727E+01  1.12214E+01  1.11576E+01  1.10827E+01  1.09982E+01  1.08968E+01  1.07897E+01  1.06836E+01  1.05830E+01
   1.05106E+01  1.04781E+01  1.04816E+01  1.05009E+01  1.05019E+01  1.04421E+01  1.03057E+01  1.01304E+01  9.98797E+00  9.93465E+00
   9.98635E+00  1.01101E+01  1.02493E+01  1.03459E+01  1.03870E+01  1.03956E+01  1.03847E+01  1.03468E+01  1.02443E+01  1.02580E+01
   1.08261E+01  1.20968E+01  1.37018E+01  1.48968E+01  1.51002E+01  1.42874E+01  1.29072E+01  1.15853E+01  1.08374E+01  1.07776E+01
   1.09925E+01  1.11191E+01  1.12093E+01  1.12999E+01  1.13956E+01  1.14935E+01  1.15935E+01  1.16961E+01  1.18046E+01  1.19218E+01
   1.20478E+01  1.21643E+01  1.22126E+01  1.24228E+01  1.31997E+01  1.45973E+01  1.61871E+01  1.72623E+01  1.73516E+01  1.65414E+01
   1.53146E+01  1.42496E+01  1.37841E+01  1.39417E+01  1.42496E+01  1.44570E+01  1.46567E+01  1.48690E+01  1.50896E+01  1.53102E+01
   1.55259E+01  1.57389E+01  1.59585E+01  1.61912E+01  1.64380E+01  1.66916E+01  1.69392E+01  1.71743E+01  1.74006E+01  1.76288E+01
   1.78666E+01  1.81145E+01  1.83687E+01  1.86230E+01  1.88762E+01  1.91312E+01  1.93888E+01  1.96369E+01  1.98604E+01  2.00580E+01
   2.02476E+01  2.04673E+01  2.07408E+01  2.10565E+01  2.13773E+01  2.16631E+01  2.18953E+01  2.20878E+01  2.22753E+01  2.24779E+01
   2.26982E+01  2.29282E+01  2.31449E+01  2.33352E+01  2.35086E+01  2.36884E+01  2.39020E+01  2.41468E+01  2.43891E+01  2.45983E+01
   2.47704E+01  2.49275E+01  2.50968E+01  2.52847E+01  2.54708E+01  2.56312E+01  2.57754E+01  2.59318E+01  2.61202E+01  2.63212E+01
   2.64993E+01  2.66341E+01  2.67283E+01  2.68190E+01  2.69409E+01  2.70826E+01  2.72052E+01  2.72843E+01  2.73158E+01  2.73196E+01
   2.73382E+01  2.74039E+01  2.75274E+01  2.76731E+01  2.77784E+01  2.78164E+01  2.77754E+01  2.76659E+01  2.75221E+01  2.73770E+01
   2.72643E+01  2.72111E+01  2.73069E+01  2.75954E+01  2.79965E+01  2.83161E+01  2.83683E+01  2.81142E+01  2.76051E+01  2.69415E+01
   2.62933E+01  2.58565E+01  2.57461E+01  2.59221E+01  2.62898E+01  2.66917E+01  2.69589E+01  2.69883E+01  2.67926E+01  2.65006E+01
   2.62268E+01  2.59956E+01  2.58042E+01  2.56617E+01  2.55458E+01  2.54291E+01  2.52840E+01  2.50905E+01  2.48562E+01  2.45827E+01
   2.42865E+01  2.40130E+01  2.38057E+01  2.36726E+01  2.35858E+01  2.34992E+01  2.33644E+01  2.31517E+01  2.28520E+01  2.24970E+01
   2.21658E+01  2.19078E+01  2.17318E+01  2.16184E+01  2.15016E+01  2.12450E+01  2.09922E+01  2.12790E+01  2.23200E+01  2.37406E+01
   2.47330E+01  2.46415E+01  2.34341E+01  2.16081E+01  1.98391E+01  1.87088E+01  1.83567E+01  1.82943E+01  1.80884E+01  1.78463E+01
   1.76152E+01  1.74025E+01  1.72218E+01  1.70742E+01  1.69339E+01  1.67801E+01  1.66027E+01  1.64010E+01  1.61841E+01  1.59679E+01
   1.57610E+01  1.55656E+01  1.53841E+01  1.52156E+01  1.50562E+01  1.49011E+01  1.47464E+01  1.45911E+01  1.44366E+01  1.42831E+01
   1.41313E+01  1.39825E+01  1.38368E+01  1.36937E+01  1.35531E+01  1.34160E+01  1.32819E+01  1.31503E+01  1.30206E+01  1.28926E+01
   1.27658E+01  1.26402E+01  1.25159E+01  1.23923E+01  1.22693E+01  1.21464E+01  1.20237E+01  1.19013E+01  1.17794E+01  1.16583E+01
   1.15379E+01  1.14182E+01  1.12994E+01  1.11817E+01  1.10651E+01  1.09500E+01  1.08365E+01  1.07246E+01  1.06145E+01  1.05062E+01
   1.03999E+01  1.02956E+01  1.01934E+01  1.00932E+01  9.99495E+00  9.89877E+00  9.80458E+00  9.71234E+00  9.62195E+00  9.53336E+00
   9.44653E+00  9.36146E+00  9.27809E+00  9.19638E+00  9.11626E+00  9.03770E+00  8.96068E+00  8.88521E+00  8.81127E+00  8.73881E+00
   8.66782E+00  8.59828E+00  8.53022E+00  8.46362E+00  8.39848E+00  8.33475E+00  8.27243E+00  8.21153E+00  8.15206E+00  8.09402E+00
   8.03736E+00  7.98206E+00  7.92810E+00  7.87550E+00  7.82424E+00  7.77429E+00  7.72562E+00  7.67818E+00  7.63196E+00  7.58697E+00
   7.54319E+00  7.50058E+00  7.45910E+00  7.41873E+00  7.37945E+00  7.34125E+00  7.30411E+00  7.26797E+00  7.23282E+00  7.19867E+00
   7.16552E+00  7.13339E+00  7.10227E+00  7.07214E+00  7.04302E+00  7.01494E+00  6.98793E+00  6.96201E+00  6.93717E+00  6.91343E+00
   6.89081E+00  6.86935E+00  6.84906E+00  6.82997E+00  6.81206E+00  6.79533E+00  6.77978E+00  6.76542E+00  6.75220E+00  6.74006E+00
   6.72890E+00  6.71862E+00  6.70909E+00  6.70017E+00  6.69165E+00  6.68331E+00  6.67489E+00  6.66616E+00  6.65687E+00  6.64679E+00
   6.63565E+00  6.62325E+00  6.60941E+00  6.59401E+00  6.57698E+00  6.55830E+00  6.53798E+00  6.51609E+00  6.49276E+00  6.46822E+00
   6.44269E+00  6.41639E+00  6.38955E+00  6.36240E+00  6.33519E+00  6.30811E+00  6.28135E+00  6.25501E+00  6.22921E+00  6.20403E+00
   6.17952E+00  6.15571E+00  6.13260E+00  6.11015E+00  6.08832E+00  6.06710E+00  6.04645E+00  6.02632E+00  6.00664E+00  5.98737E+00
   5.96846E+00  5.94990E+00  5.93165E+00  5.91368E+00  5.89596E+00  5.87845E+00  5.86115E+00  5.84406E+00  5.82717E+00  5.81047E+00
   5.79393E+00  5.77756E+00  5.76136E+00  5.74534E+00  5.72951E+00  5.71384E+00  5.69833E+00  5.68300E+00  5.66785E+00  5.65290E+00
   5.63814E+00  5.62357E+00  5.60918E+00  5.59499E+00  5.58101E+00  5.56724E+00  5.55364E+00  5.54023E+00  5.52699E+00  5.51393E+00
   5.50107E+00  5.48838E+00  5.47585E+00  5.46347E+00  5.45127E+00  5.43923E+00  5.42736E+00  5.41565E+00  5.40407E+00  5.39265E+00
   5.38137E+00  5.37025E+00  5.35928E+00  5.34844E+00  5.33773E+00  5.32715E+00  5.31671E+00  5.30642E+00  5.29625E+00  5.28619E+00
   5.27625E+00  5.26644E+00  5.25675E+00  5.24718E+00  5.23772E+00  5.22836E+00  5.21911E+00  5.20998E+00  5.20095E+00  5.19204E+00
   5.18321E+00  5.17447E+00  5.16584E+00  5.15731E+00  5.14888E+00  5.14054E+00  5.13228E+00  5.12411E+00
 NY background values follow
     2.130E+01    2.111E+01    2.092E+01    2.074E+01    2.055E+01    2.036E+01    2.018E+01    1.999E+01    1.980E+01    1.962E+01
     1.943E+01    1.925E+01    1.906E+01    1.888E+01    1.870E+01    1.851E+01    1.833E+01    1.815E+01    1.797E+01    1.779E+01
     1.761E+01    1.743E+01    1.726E+01    1.708E+01    1.691E+01    1.674E+01    1.656E+01    1.639E+01    1.622E+01    1.606E+01
     1.589E+01    1.572E+01    1.556E+01    1.540E+01    1.524E+01    1.508E+01    1.492E+01    1.477E+01    1.461E+01    1.446E+01
     1.431E+01    1.416E+01    1.402E+01    1.387E+01    1.373E+01    1.359E+01    1.345E+01    1.332E+01    1.318E+01    1.305E+01
     1.292E+01    1.280E+01    1.267E+01    1.255E+01    1.243E+01    1.231E+01    1.220E+01    1.209E+01    1.198E+01    1.187E+01
     1.177E+01    1.167E+01    1.157E+01    1.148E+01    1.138E+01    1.129E+01    1.121E+01    1.113E+01    1.104E+01    1.097E+01
     1.089E+01    1.082E+01    1.076E+01    1.069E+01    1.063E+01    1.057E+01    1.052E+01    1.047E+01    1.042E+01    1.038E+01
     1.034E+01    1.030E+01    1.027E+01    1.024E+01    1.021E+01    1.019E+01    1.017E+01    1.016E+01    1.015E+01    1.014E+01
     1.014E+01    1.014E+01    1.015E+01    1.016E+01    1.017E+01    1.019E+01    1.021E+01    1.024E+01    1.027E+01    1.031E+01
     1.034E+01    1.039E+01    1.043E+01    1.049E+01    1.054E+01    1.060E+01    1.067E+01    1.074E+01    1.081E+01    1.089E+01
     1.097E+01    1.105E+01    1.115E+01    1.124E+01    1.134E+01    1.144E+01    1.155E+01    1.167E+01    1.178E+01    1.191E+01
     1.203E+01    1.216E+01    1.230E+01    1.244E+01    1.258E+01    1.273E+01    1.289E+01    1.305E+01    1.321E+01    1.338E+01
     1.355E+01    1.373E+01    1.391E+01    1.410E+01    1.429E+01    1.449E+01    1.469E+01    1.490E+01    1.511E+01    1.533E+01
     1.555E+01    1.577E+01    1.600E+01    1.623E+01    1.646E+01    1.669E+01    1.693E+01    1.717E+01    1.742E+01    1.766E+01
     1.791E+01    1.816E+01    1.841E+01    1.866E+01    1.891E+01    1.916E+01    1.941E+01    1.966E+01    1.991E+01    2.016E+01
     2.041E+01    2.066E+01    2.091E+01    2.116E+01    2.140E+01    2.164E+01    2.189E+01    2.212E+01    2.236E+01    2.259E+01
     2.282E+01    2.305E+01    2.327E+01    2.349E+01    2.370E+01    2.391E+01    2.412E+01    2.432E+01    2.452E+01    2.471E+01
     2.489E+01    2.507E+01    2.525E+01    2.541E+01    2.558E+01    2.573E+01    2.588E+01    2.603E+01    2.616E+01    2.629E+01
     2.642E+01    2.654E+01    2.665E+01    2.676E+01    2.686E+01    2.695E+01    2.704E+01    2.712E+01    2.720E+01    2.727E+01
     2.733E+01    2.739E+01    2.743E+01    2.748E+01    2.751E+01    2.754E+01    2.757E+01    2.758E+01    2.759E+01    2.760E+01
     2.759E+01    2.758E+01    2.756E+01    2.754E+01    2.751E+01    2.747E+01    2.743E+01    2.738E+01    2.732E+01    2.725E+01
     2.718E+01    2.710E+01    2.701E+01    2.692E+01    2.682E+01    2.671E+01    2.660E+01    2.647E+01    2.635E+01    2.621E+01
     2.607E+01    2.592E+01    2.576E+01    2.560E+01    2.544E+01    2.527E+01    2.509E+01    2.491E+01    2.472E+01    2.453E+01
     2.434E+01    2.414E+01    2.394E+01    2.373E+01    2.352E+01    2.331E+01    2.309E+01    2.288E+01    2.266E+01    2.243E+01
     2.221E+01    2.198E+01    2.176E+01    2.153E+01    2.130E+01    2.107E+01    2.084E+01    2.061E+01    2.038E+01    2.015E+01
     1.992E+01    1.969E+01    1.946E+01    1.923E+01    1.901E+01    1.878E+01    1.856E+01    1.834E+01    1.812E+01    1.791E+01
     1.769E+01    1.748E+01    1.728E+01    1.707E+01    1.687E+01    1.667E+01    1.648E+01    1.629E+01    1.610E+01    1.591E+01
     1.573E+01    1.555E+01    1.537E+01    1.520E+01    1.503E+01    1.486E+01    1.469E+01    1.453E+01    1.437E+01    1.421E+01
     1.405E+01    1.390E+01    1.375E+01    1.360E+01    1.345E+01    1.331E+01    1.317E+01    1.303E+01    1.289E+01    1.275E+01
     1.262E+01    1.249E+01    1.236E+01    1.223E+01    1.211E+01    1.199E+01    1.186E+01    1.175E+01    1.163E+01    1.151E+01
     1.140E+01    1.128E+01    1.117E+01    1.106E+01    1.096E+01    1.085E+01    1.075E+01    1.064E+01    1.054E+01    1.044E+01
     1.034E+01    1.024E+01    1.015E+01    1.005E+01    9.960E+00    9.869E+00    9.778E+00    9.689E+00    9.601E+00    9.515E+00
     9.430E+00    9.347E+00    9.265E+00    9.184E+00    9.105E+00    9.027E+00    8.950E+00    8.875E+00    8.801E+00    8.729E+00
     8.658E+00    8.588E+00    8.520E+00    8.453E+00    8.387E+00    8.322E+00    8.259E+00    8.198E+00    8.137E+00    8.078E+00
     8.020E+00    7.964E+00    7.908E+00    7.855E+00    7.802E+00    7.751E+00    7.701E+00    7.652E+00    7.605E+00    7.558E+00
     7.513E+00    7.470E+00    7.428E+00    7.386E+00    7.347E+00    7.308E+00    7.270E+00    7.234E+00    7.199E+00    7.164E+00
     7.131E+00    7.099E+00    7.068E+00    7.037E+00    7.008E+00    6.980E+00    6.952E+00    6.925E+00    6.899E+00    6.874E+00
     6.849E+00    6.826E+00    6.802E+00    6.780E+00    6.758E+00    6.737E+00    6.716E+00    6.696E+00    6.676E+00    6.657E+00
     6.638E+00    6.619E+00    6.601E+00    6.584E+00    6.566E+00    6.549E+00    6.532E+00    6.515E+00    6.499E+00    6.483E+00
     6.466E+00    6.450E+00    6.434E+00    6.418E+00    6.402E+00    6.386E+00    6.370E+00    6.354E+00    6.338E+00    6.321E+00
     6.305E+00    6.289E+00    6.272E+00    6.255E+00    6.239E+00    6.222E+00    6.205E+00    6.188E+00    6.171E+00    6.154E+00
     6.138E+00    6.121E+00    6.104E+00    6.087E+00    6.070E+00    6.053E+00    6.036E+00    6.019E+00    6.002E+00    5.985E+00
     5.969E+00    5.952E+00    5.935E+00    5.919E+00    5.902E+00    5.886E+00    5.869E+00    5.853E+00    5.837E+00    5.821E+00
     5.805E+00    5.789E+00    5.773E+00    5.757E+00    5.742E+00    5.726E+00    5.711E+00    5.696E+00    5.681E+00    5.666E+00
     5.652E+00    5.637E+00    5.623E+00    5.609E+00    5.595E+00    5.581E+00    5.568E+00    5.555E+00    5.541E+00    5.528E+00
     5.516E+00    5.503E+00    5.490E+00    5.478E+00    5.466E+00    5.454E+00    5.442E+00    5.430E+00    5.419E+00    5.407E+00
     5.396E+00    5.385E+00    5.374E+00    5.363E+00    5.352E+00    5.342E+00    5.331E+00    5.321E+00    5.311E+00    5.301E+00
     5.291E+00    5.281E+00    5.271E+00    5.261E+00    5.252E+00    5.242E+00    5.233E+00    5.224E+00    5.215E+00    5.206E+00
     5.197E+00    5.188E+00    5.179E+00    5.170E+00    5.162E+00    5.153E+00    5.145E+00    5.137E+00
 Asp      Conc. = 1.24E+01
