 LCModel (Version 6.3-1L) Copyright: S.W. Provencher.          Ref.: Magn. Reson. Med. 30:672-679 (1993).                
 Slice#2 Row#11 Col#8  K_02_press_1_raw_act
 36 lines in following concentration table = NCONC+1
    Conc.  %SD /Cr+PCr  Metabolite                                         
    0.000 999%   0.000 Ala                                                 
    0.000 999%   0.000 Asp                                                 
 1.20E+03  19%   0.504 Cr                                                  
 1.19E+03  20%   0.496 PCr                                                 
    0.000 999%   0.000 GABA                                                
    0.000 999%   0.000 Glc                                                 
 1.06E+03  23%   0.442 Gln                                                 
 2.13E+03  13%   0.893 Glu                                                 
  576.774   4%   0.241 GPC                                                 
    0.000 999%   0.000 PCh                                                 
  523.190  14%   0.219 GSH                                                 
 1.78E+03  14%   0.746 Ins                                                 
    0.000 999%   0.000 Lac                                                 
 2.99E+03   5%   1.250 NAA                                                 
  159.597  94% 6.7E-02 NAAG                                                
  101.079  28% 4.2E-02 Scyllo                                              
    0.000 999%   0.000 Tau                                                 
    0.000 999%   0.000 -CrCH2                                              
  576.774   4%   0.241 GPC+PCh                                             
 3.15E+03   3%   1.317 NAA+NAAG                                            
 2.39E+03   3%   1.000 Cr+PCr                                              
 3.19E+03  12%   1.334 Glu+Gln                                             
    0.000 999%   0.000 Lip13a                                              
   50.098 268% 2.1E-02 Lip13b                                              
    0.000 999%   0.000 Lip09                                               
 2.17E+03   9%   0.909 MM09                                                
   21.816 384% 9.1E-03 Lip20                                               
 4.58E+03   8%   1.917 MM20                                                
  768.515  24%   0.322 MM12                                                
 2.25E+03  17%   0.941 MM14                                                
 1.17E+03  27%   0.489 MM17                                                
   50.098 268% 2.1E-02 Lip13a+Lip13b                                       
 3.07E+03  12%   1.284 MM14+Lip13a+Lip13b+MM12                             
 2.17E+03   9%   0.909 MM09+Lip09                                          
 4.60E+03   8%   1.927 MM20+Lip20                                          
   6 lines in following misc. output table
  FWHM = 0.046 ppm    S/N =  16                                            
  Data shift = 0.015 ppm                                                   
  Ph: -11 deg       1.8 deg/ppm                                            
  alphaB,S = 8.5E+01,   1.3E+02                                            
   14 spline knots.   Ns = 7(1)                                            
   3 inflections.     1 extrema                                            
  498 points on ppm-axis = NY
      4.000000     3.992357     3.984714     3.977070     3.969427     3.961784     3.954141     3.946497     3.938854     3.931211
      3.923568     3.915925     3.908281     3.900638     3.892995     3.885352     3.877708     3.870065     3.862422     3.854779
      3.847136     3.839492     3.831849     3.824206     3.816563     3.808919     3.801276     3.793633     3.785990     3.778347
      3.770703     3.763060     3.755417     3.747774     3.740130     3.732487     3.724844     3.717201     3.709558     3.701914
      3.694271     3.686628     3.678985     3.671341     3.663698     3.656055     3.648412     3.640769     3.633125     3.625482
      3.617839     3.610196     3.602552     3.594909     3.587266     3.579623     3.571980     3.564336     3.556693     3.549050
      3.541407     3.533763     3.526120     3.518477     3.510834     3.503191     3.495547     3.487904     3.480261     3.472618
      3.464974     3.457331     3.449688     3.442045     3.434402     3.426758     3.419115     3.411472     3.403829     3.396185
      3.388542     3.380899     3.373256     3.365613     3.357969     3.350326     3.342683     3.335040     3.327396     3.319753
      3.312110     3.304467     3.296824     3.289180     3.281537     3.273894     3.266251     3.258607     3.250964     3.243321
      3.235678     3.228034     3.220391     3.212748     3.205105     3.197462     3.189818     3.182175     3.174532     3.166889
      3.159245     3.151602     3.143959     3.136316     3.128673     3.121029     3.113386     3.105743     3.098100     3.090456
      3.082813     3.075170     3.067527     3.059884     3.052240     3.044597     3.036954     3.029311     3.021667     3.014024
      3.006381     2.998738     2.991095     2.983451     2.975808     2.968165     2.960522     2.952878     2.945235     2.937592
      2.929949     2.922306     2.914662     2.907019     2.899376     2.891733     2.884089     2.876446     2.868803     2.861160
      2.853517     2.845873     2.838230     2.830587     2.822944     2.815300     2.807657     2.800014     2.792371     2.784728
      2.777084     2.769441     2.761798     2.754155     2.746511     2.738868     2.731225     2.723582     2.715939     2.708295
      2.700652     2.693009     2.685366     2.677722     2.670079     2.662436     2.654793     2.647150     2.639506     2.631863
      2.624220     2.616577     2.608933     2.601290     2.593647     2.586004     2.578361     2.570717     2.563074     2.555431
      2.547788     2.540144     2.532501     2.524858     2.517215     2.509572     2.501928     2.494285     2.486642     2.478999
      2.471355     2.463712     2.456069     2.448426     2.440783     2.433139     2.425496     2.417853     2.410210     2.402566
      2.394923     2.387280     2.379637     2.371994     2.364350     2.356707     2.349064     2.341421     2.333777     2.326134
      2.318491     2.310848     2.303205     2.295561     2.287918     2.280275     2.272632     2.264988     2.257345     2.249702
      2.242059     2.234416     2.226772     2.219129     2.211486     2.203843     2.196199     2.188556     2.180913     2.173270
      2.165627     2.157983     2.150340     2.142697     2.135054     2.127410     2.119767     2.112124     2.104481     2.096838
      2.089194     2.081551     2.073908     2.066265     2.058621     2.050978     2.043335     2.035692     2.028049     2.020405
      2.012762     2.005119     1.997476     1.989833     1.982190     1.974546     1.966903     1.959260     1.951617     1.943974
      1.936331     1.928688     1.921045     1.913402     1.905759     1.898115     1.890472     1.882829     1.875186     1.867543
      1.859900     1.852257     1.844614     1.836971     1.829327     1.821684     1.814041     1.806398     1.798755     1.791112
      1.783469     1.775826     1.768183     1.760540     1.752896     1.745253     1.737610     1.729967     1.722324     1.714681
      1.707038     1.699395     1.691752     1.684108     1.676465     1.668822     1.661179     1.653536     1.645893     1.638250
      1.630607     1.622964     1.615321     1.607677     1.600034     1.592391     1.584748     1.577105     1.569462     1.561819
      1.554176     1.546533     1.538890     1.531246     1.523603     1.515960     1.508317     1.500674     1.493031     1.485388
      1.477745     1.470102     1.462458     1.454815     1.447172     1.439529     1.431886     1.424243     1.416600     1.408957
      1.401314     1.393671     1.386027     1.378384     1.370741     1.363098     1.355455     1.347812     1.340169     1.332526
      1.324883     1.317240     1.309596     1.301953     1.294310     1.286667     1.279024     1.271381     1.263738     1.256095
      1.248452     1.240808     1.233165     1.225522     1.217879     1.210236     1.202593     1.194950     1.187307     1.179664
      1.172021     1.164377     1.156734     1.149091     1.141448     1.133805     1.126162     1.118519     1.110876     1.103233
      1.095590     1.087946     1.080303     1.072660     1.065017     1.057374     1.049731     1.042088     1.034445     1.026802
      1.019158     1.011515     1.003872     0.996229     0.988586     0.980943     0.973300     0.965657     0.958014     0.950371
      0.942727     0.935084     0.927441     0.919798     0.912155     0.904512     0.896869     0.889226     0.881583     0.873940
      0.866296     0.858653     0.851010     0.843367     0.835724     0.828081     0.820438     0.812795     0.805152     0.797508
      0.789865     0.782222     0.774579     0.766936     0.759293     0.751650     0.744007     0.736364     0.728721     0.721077
      0.713434     0.705791     0.698148     0.690505     0.682862     0.675219     0.667576     0.659933     0.652290     0.644646
      0.637003     0.629360     0.621717     0.614074     0.606431     0.598788     0.591145     0.583502     0.575858     0.568215
      0.560572     0.552929     0.545286     0.537643     0.530000     0.522357     0.514714     0.507071     0.499427     0.491784
      0.484141     0.476498     0.468855     0.461212     0.453569     0.445925     0.438282     0.430639     0.422996     0.415353
      0.407710     0.400067     0.392424     0.384780     0.377137     0.369494     0.361851     0.354208     0.346565     0.338922
      0.331278     0.323635     0.315992     0.308349     0.300706     0.293063     0.285420     0.277777     0.270133     0.262490
      0.254847     0.247204     0.239561     0.231918     0.224275     0.216631     0.208988     0.201345
 NY phased data points follow
  -2.24442E+01 -2.11415E+01 -1.87126E+01 -1.29020E+01 -1.15438E+01 -5.60622E+00  3.81675E+00  1.51227E+01  1.82582E+01  3.01412E+01
   3.66834E+01  3.46979E+01  2.98585E+01  1.71297E+01  1.15353E+01  1.84366E+00 -7.88214E+00 -1.05648E+01 -1.82896E+01 -1.94397E+01
  -2.06972E+01 -2.13187E+01 -1.78340E+01 -1.85200E+01 -1.65880E+01 -1.36609E+01 -1.33566E+01 -1.30779E+01 -1.37233E+01 -5.10573E+00
  -3.61072E+00 -5.43809E+00 -7.89894E+00 -7.43005E+00 -6.86587E+00 -7.45800E+00 -1.78371E+01 -1.61062E+01 -1.58272E+01 -1.47137E+01
  -1.45163E+01 -1.36750E+01 -1.11079E+01 -1.68938E+01 -9.53714E+00 -1.64962E+00 -3.60366E-01 -1.01152E+00 -1.57706E-01 -6.96226E+00
  -1.32212E+01 -9.00408E+00 -1.06780E+01 -1.16577E+01 -1.11459E+01 -1.12478E+01 -1.27017E+01 -7.20408E+00 -4.94732E+00 -1.19253E+01
  -1.34265E+01 -1.75078E+01 -2.10717E+01 -1.70491E+01 -2.21797E+01 -2.25185E+01 -2.49556E+01 -2.17624E+01 -2.07952E+01 -2.27447E+01
  -2.03025E+01 -2.11492E+01 -2.06592E+01 -2.28749E+01 -1.95364E+01 -2.13752E+01 -2.23553E+01 -1.59141E+01 -2.19805E+01 -1.85008E+01
  -2.37389E+01 -1.92405E+01 -1.94141E+01 -2.14137E+01 -2.39734E+01 -2.04619E+01 -1.97303E+01 -1.57834E+01 -1.89593E+01 -1.28162E+01
  -1.96282E+01 -1.54162E+01 -1.44396E+01 -1.60504E+01 -1.50248E+01 -1.68763E+01 -1.38074E+01 -1.04498E+01 -6.45919E+00  1.89787E+00
   1.31338E+01  2.00713E+01  3.36212E+01  3.37750E+01  2.73167E+01  1.89534E+01  1.23187E+01  5.96863E+00 -3.47869E+00 -7.19758E+00
  -1.14811E+01 -1.13201E+01 -1.45315E+01 -1.44685E+01 -1.24335E+01 -1.42636E+01 -1.43633E+01 -1.46499E+01 -1.23920E+01 -9.14727E+00
  -8.34940E+00 -5.77939E+00  3.59195E+00  1.34391E+01  2.78034E+01  4.89431E+01  5.68280E+01  6.78641E+01  5.87837E+01  4.41907E+01
   3.03663E+01  2.11422E+01  1.21058E+01 -3.00314E-01 -4.95602E+00 -7.82812E+00 -9.95378E+00 -9.29407E+00 -1.38732E+01 -1.41700E+01
  -1.13955E+01 -9.53372E+00 -1.32049E+01 -4.81037E+00 -1.30827E+01 -1.30088E+01 -1.44830E+01 -1.16160E+01 -1.42791E+01 -1.52820E+01
  -1.65596E+01 -1.84715E+01 -1.44281E+01 -1.89828E+01 -1.33121E+01 -1.06979E+01 -1.64119E+01 -1.23083E+01 -1.77195E+01 -1.10347E+01
  -1.24333E+01 -1.79085E+01 -2.18838E+01 -1.87367E+01 -1.15254E+01 -1.73356E+01 -1.43998E+01 -1.85169E+01 -2.33193E+01 -2.38748E+01
  -2.29518E+01 -2.77738E+01 -2.55235E+01 -3.27136E+01 -3.58791E+01 -3.73072E+01 -3.52991E+01 -3.20661E+01 -2.87088E+01 -2.84715E+01
  -3.22250E+01 -3.05136E+01 -2.86595E+01 -3.24420E+01 -3.23813E+01 -2.91666E+01 -2.94055E+01 -2.49615E+01 -2.44473E+01 -2.06793E+01
  -1.30402E+01 -1.38049E+01 -1.40534E+01 -1.28735E+01 -1.46631E+01 -1.49907E+01 -1.74876E+01 -1.56568E+01 -2.02364E+01 -1.71395E+01
  -1.23203E+01 -9.21728E+00 -1.54647E+01 -7.81543E+00 -1.15900E+01 -1.58106E+01 -1.62226E+01 -1.90291E+01 -1.96090E+01 -2.50785E+01
  -2.44439E+01 -1.63028E+01 -1.53380E+01 -1.09246E+01 -5.09032E+00 -4.91072E+00 -2.02450E+00 -3.46602E+00 -1.25371E+01 -1.75727E+01
  -2.25729E+01 -2.54560E+01 -2.25954E+01 -1.67875E+01 -1.39872E+01 -8.00559E+00 -4.55071E+00 -2.29919E+00 -2.42818E+00 -3.57359E+00
  -1.45059E+00 -4.00395E+00 -9.93408E+00 -1.08862E+01 -5.55304E+00 -5.23174E+00 -1.13324E+01 -1.04404E+01 -1.07722E+01 -8.20044E+00
  -6.67716E+00 -6.16181E+00 -1.28867E+01 -8.24842E+00 -1.15858E+01 -5.86414E+00 -2.57975E+00  4.61633E-01  5.41523E+00  7.23057E+00
   5.41596E+00  9.94487E+00  1.11135E+01  1.83406E+01  2.92038E+01  3.30722E+01  3.52589E+01  5.65431E+01  8.37955E+01  1.07081E+02
   1.11831E+02  9.47857E+01  7.72231E+01  5.95920E+01  4.18232E+01  2.31255E+01  1.60613E+01  5.93865E+00  9.23012E+00 -2.65455E+00
  -2.12492E+00 -4.87014E+00 -3.11453E+00 -3.16245E+00 -8.71026E+00 -8.34777E+00 -4.03565E+00 -6.13434E+00 -7.70527E+00 -1.01606E+01
  -8.25993E+00 -1.17937E+01 -7.64490E+00 -8.14097E+00 -1.25788E+01 -8.68115E+00 -1.36524E+01 -9.07398E+00 -1.74480E+01 -8.93176E+00
  -9.05823E+00 -8.92833E+00 -7.23166E+00 -9.93870E+00 -1.39730E+01 -1.14496E+01 -7.49311E+00 -1.12541E+01 -1.10813E+01 -9.17003E+00
  -6.98967E+00 -8.55197E+00 -1.04854E+01 -1.28874E+01 -6.25354E+00 -3.42599E+00 -3.87140E+00 -5.48633E+00 -4.45869E+00 -6.50368E+00
  -1.49430E-01 -3.01064E+00 -1.32807E+00  1.32134E+00 -4.34337E+00 -2.39633E+00 -4.16282E+00 -5.44057E+00 -2.84736E+00 -4.46005E+00
  -4.54373E-01 -4.25293E+00 -1.41423E+00 -3.31640E+00  2.16786E+00  3.08516E+00  7.07684E-02 -6.27987E-01 -1.64618E+00  1.18488E+00
  -1.88634E+00  8.29419E-01 -1.43154E+00  5.01578E+00  1.22751E+00  2.38400E+00  1.78903E+00 -3.93838E-01 -4.94491E+00 -3.28015E+00
  -8.93521E+00 -5.41351E+00 -9.73082E+00 -7.01129E+00 -1.19454E+01 -7.35628E+00 -6.33273E+00 -1.04967E+01 -7.23614E+00 -7.38115E+00
  -6.76777E+00 -9.61683E+00 -4.44083E+00 -9.08727E+00 -1.05578E+01 -7.95372E+00 -7.17188E+00 -1.07166E+01 -8.44805E+00 -8.71742E+00
  -4.98757E+00 -5.62396E+00 -6.73653E+00 -6.63640E+00 -4.59205E+00 -7.95079E+00 -8.03719E+00 -9.35074E+00 -5.27990E+00 -1.06950E+01
  -3.53911E+00 -6.72262E+00 -2.62490E+00 -9.46444E+00 -6.61782E+00 -1.06181E+01 -1.05084E+01 -9.30334E+00 -9.88046E+00 -7.79988E+00
  -1.10155E+01 -6.93937E+00 -9.19094E+00 -6.68087E+00 -8.58082E+00 -7.79602E+00 -9.17834E+00 -7.49171E+00 -2.81443E+00 -1.17724E+00
  -1.58585E+00 -4.60281E+00 -5.32525E+00 -2.42739E+00 -4.31916E+00 -4.16358E-01  3.49532E+00 -9.76700E-01 -2.44488E+00  1.48956E-01
  -1.35133E+00  9.13080E-01 -1.33289E+00 -3.56138E+00  1.70681E+00  7.19266E+00  1.71436E-01  5.09747E+00  2.75641E+00  4.80005E+00
  -5.28932E-01  6.04931E+00 -1.25778E+00 -1.79681E+00 -4.88984E+00  1.13192E+00 -3.32067E+00 -4.00471E+00 -2.26979E+00 -1.42385E+00
  -5.90067E+00 -8.48057E+00 -9.52233E+00 -5.34344E+00 -5.95984E+00 -8.06857E+00 -9.27504E+00 -1.52920E+01 -1.21372E+01 -1.08889E+01
  -6.45743E+00 -8.11001E+00 -1.00341E+01 -1.10853E+01 -1.29463E+01 -5.22507E+00 -4.86496E+00 -1.16770E+01 -1.01331E+01 -1.19329E+01
  -1.25464E+01 -1.21257E+01 -8.99739E+00 -6.57182E+00 -9.36801E+00 -6.85208E+00 -1.39172E+01 -1.07618E+01 -1.16584E+01 -1.10118E+01
  -7.89770E+00 -1.01810E+01 -1.15834E+01 -1.30960E+01 -9.69428E+00 -1.71277E+01 -7.00000E+00 -9.57272E+00 -1.03002E+01 -7.78811E+00
  -8.69717E+00 -1.29745E+01 -1.46527E+01 -1.39230E+01 -1.05998E+01 -1.05952E+01 -1.04779E+01 -9.81376E+00 -1.29894E+01 -1.29480E+01
  -7.53839E+00 -6.60746E+00 -9.25573E+00 -1.26184E+01 -1.18041E+01 -8.19757E+00 -9.58760E+00 -1.24799E+01 -8.09327E+00 -9.84564E+00
  -9.34357E+00 -1.09317E+01 -1.19080E+01 -1.24970E+01 -9.85278E+00 -7.06574E+00 -8.53794E+00 -1.15822E+01 -8.26029E+00 -1.25199E+01
  -8.96089E+00 -1.26130E+01 -1.27846E+01 -1.01001E+01 -8.83758E+00 -5.02548E+00 -1.14922E+01 -1.50549E+01
 NY points of the fit to the data follow
  -2.02274E+01 -2.03837E+01 -1.92225E+01 -1.64005E+01 -1.20267E+01 -6.44353E+00  8.41265E-01  1.04700E+01  2.12612E+01  3.00674E+01
   3.37712E+01  3.14105E+01  2.45837E+01  1.59859E+01  7.70917E+00  7.37013E-01 -4.73149E+00 -8.90686E+00 -1.18613E+01 -1.37332E+01
  -1.48160E+01 -1.56335E+01 -1.62557E+01 -1.63955E+01 -1.65099E+01 -1.66350E+01 -1.61203E+01 -1.41078E+01 -1.05677E+01 -6.43194E+00
  -3.03276E+00 -1.46755E+00 -2.02844E+00 -4.32875E+00 -7.81829E+00 -1.16027E+01 -1.47344E+01 -1.68489E+01 -1.79092E+01 -1.76952E+01
  -1.64045E+01 -1.46894E+01 -1.29765E+01 -1.09143E+01 -8.23876E+00 -5.45631E+00 -3.66586E+00 -3.79345E+00 -5.78298E+00 -8.73515E+00
  -1.18235E+01 -1.44562E+01 -1.62385E+01 -1.72017E+01 -1.75467E+01 -1.73981E+01 -1.67402E+01 -1.57194E+01 -1.47371E+01 -1.42057E+01
  -1.43633E+01 -1.51930E+01 -1.64008E+01 -1.76179E+01 -1.84308E+01 -1.86830E+01 -1.85224E+01 -1.81055E+01 -1.75016E+01 -1.68271E+01
  -1.62452E+01 -1.59399E+01 -1.59910E+01 -1.63149E+01 -1.67587E+01 -1.72026E+01 -1.75805E+01 -1.78784E+01 -1.80992E+01 -1.82989E+01
  -1.82973E+01 -1.82191E+01 -1.82358E+01 -1.82107E+01 -1.80091E+01 -1.77237E+01 -1.75984E+01 -1.78176E+01 -1.83185E+01 -1.87920E+01
  -1.90709E+01 -1.91376E+01 -1.90491E+01 -1.88891E+01 -1.87043E+01 -1.78830E+01 -1.48249E+01 -1.07911E+01 -6.27593E+00  7.30208E-01
   1.14015E+01  2.35495E+01  3.26060E+01  3.48820E+01  3.02020E+01  2.14876E+01  1.19081E+01  3.23020E+00 -3.86009E+00 -9.16732E+00
  -1.30038E+01 -1.57270E+01 -1.70136E+01 -1.74396E+01 -1.76048E+01 -1.76522E+01 -1.76177E+01 -1.74780E+01 -1.70573E+01 -1.53593E+01
  -1.01909E+01 -3.18104E+00  4.33201E+00  1.48499E+01  3.02907E+01  4.79912E+01  6.16377E+01  6.57502E+01  5.96014E+01  4.72314E+01
   3.34669E+01  2.09285E+01  1.04062E+01  1.96292E+00 -4.80799E+00 -1.01311E+01 -1.32048E+01 -1.43826E+01 -1.45540E+01 -1.41406E+01
  -1.35436E+01 -1.31145E+01 -1.30045E+01 -1.31919E+01 -1.36010E+01 -1.41132E+01 -1.46327E+01 -1.51380E+01 -1.56174E+01 -1.60496E+01
  -1.64359E+01 -1.67622E+01 -1.70313E+01 -1.72723E+01 -1.75716E+01 -1.78106E+01 -1.79747E+01 -1.82082E+01 -1.86061E+01 -1.92485E+01
  -1.98362E+01 -1.99527E+01 -1.95580E+01 -1.90499E+01 -1.88758E+01 -1.91968E+01 -1.98690E+01 -2.06369E+01 -2.13457E+01 -2.20161E+01
  -2.26000E+01 -2.30064E+01 -2.34516E+01 -2.40710E+01 -2.47096E+01 -2.49697E+01 -2.46748E+01 -2.41175E+01 -2.37835E+01 -2.38441E+01
  -2.41043E+01 -2.41231E+01 -2.38472E+01 -2.35342E+01 -2.32464E+01 -2.27515E+01 -2.17355E+01 -2.00940E+01 -1.80635E+01 -1.61444E+01
  -1.48254E+01 -1.44356E+01 -1.47805E+01 -1.55209E+01 -1.63751E+01 -1.71724E+01 -1.76888E+01 -1.75159E+01 -1.64936E+01 -1.47834E+01
  -1.27834E+01 -1.08141E+01 -9.46474E+00 -9.30986E+00 -1.02747E+01 -1.24006E+01 -1.56491E+01 -1.92565E+01 -2.20111E+01 -2.29146E+01
  -2.20964E+01 -1.97362E+01 -1.60005E+01 -1.14921E+01 -7.58877E+00 -5.85615E+00 -6.75821E+00 -9.51387E+00 -1.34168E+01 -1.79386E+01
  -2.18795E+01 -2.39475E+01 -2.34673E+01 -2.07590E+01 -1.69982E+01 -1.32000E+01 -1.00531E+01 -7.90641E+00 -6.97427E+00 -7.05939E+00
  -7.47240E+00 -7.79834E+00 -7.93746E+00 -7.74259E+00 -7.00840E+00 -5.93021E+00 -4.81870E+00 -3.93172E+00 -3.57299E+00 -3.91507E+00
  -4.80538E+00 -5.72650E+00 -6.14881E+00 -5.76604E+00 -4.67509E+00 -3.25370E+00 -1.78902E+00 -5.13410E-01  5.56194E-01  1.67000E+00
   2.95723E+00  4.48222E+00  7.24212E+00  1.46261E+01  2.46566E+01  3.37938E+01  4.51022E+01  6.25059E+01  8.39439E+01  1.01428E+02
   1.06932E+02  9.85129E+01  8.11240E+01  6.13721E+01  4.31880E+01  2.80928E+01  1.65488E+01  8.03035E+00  1.52437E+00 -2.30528E+00
  -3.90592E+00 -4.78553E+00 -5.32522E+00 -5.70172E+00 -6.08889E+00 -6.54686E+00 -7.06047E+00 -7.61480E+00 -8.18601E+00 -8.73146E+00
  -9.21312E+00 -9.61647E+00 -9.93975E+00 -1.01961E+01 -1.04083E+01 -1.05869E+01 -1.07354E+01 -1.08499E+01 -1.09208E+01 -1.09429E+01
  -1.09125E+01 -1.08279E+01 -1.06930E+01 -1.05124E+01 -1.02912E+01 -1.00337E+01 -9.74188E+00 -9.41747E+00 -9.05973E+00 -8.66887E+00
  -8.24990E+00 -7.81045E+00 -7.36042E+00 -6.90970E+00 -6.46702E+00 -6.03975E+00 -5.63374E+00 -5.25330E+00 -4.90124E+00 -4.57758E+00
  -4.28122E+00 -4.01030E+00 -3.76134E+00 -3.52955E+00 -3.30895E+00 -3.09314E+00 -2.87657E+00 -2.65484E+00 -2.42480E+00 -2.18452E+00
  -1.93382E+00 -1.67481E+00 -1.41221E+00 -1.15282E+00 -9.04785E-01 -6.76960E-01 -4.78788E-01 -3.20125E-01 -2.10664E-01 -1.58972E-01
  -1.71644E-01 -2.53009E-01 -4.05254E-01 -6.28537E-01 -9.20776E-01 -1.27735E+00 -1.69115E+00 -2.15315E+00 -2.65317E+00 -3.18035E+00
  -3.72323E+00 -4.26984E+00 -4.80808E+00 -5.32641E+00 -5.81442E+00 -6.26304E+00 -6.66452E+00 -7.01258E+00 -7.30303E+00 -7.53445E+00
  -7.70853E+00 -7.82989E+00 -7.90546E+00 -7.94393E+00 -7.95504E+00 -7.94885E+00 -7.93457E+00 -7.91949E+00 -7.90824E+00 -7.90300E+00
  -7.90417E+00 -7.91124E+00 -7.92330E+00 -7.93944E+00 -7.95900E+00 -7.98192E+00 -8.00883E+00 -8.04075E+00 -8.07842E+00 -8.12179E+00
  -8.16988E+00 -8.22095E+00 -8.27267E+00 -8.32211E+00 -8.36558E+00 -8.39874E+00 -8.41690E+00 -8.41541E+00 -8.38985E+00 -8.33588E+00
  -8.24909E+00 -8.12509E+00 -7.95983E+00 -7.74988E+00 -7.49237E+00 -7.18490E+00 -6.82554E+00 -6.41314E+00 -5.94773E+00 -5.43084E+00
  -4.86546E+00 -4.25601E+00 -3.60851E+00 -2.93084E+00 -2.23293E+00 -1.52660E+00 -8.25185E-01 -1.42999E-01  5.04949E-01  1.10328E+00
   1.63674E+00  2.09101E+00  2.45352E+00  2.71411E+00  2.86534E+00  2.90270E+00  2.82482E+00  2.63375E+00  2.33497E+00  1.93704E+00
   1.45096E+00  8.89538E-01  2.66799E-01 -4.02384E-01 -1.10290E+00 -1.82010E+00 -2.54051E+00 -3.25223E+00 -3.94504E+00 -4.61042E+00
  -5.24156E+00 -5.83359E+00 -6.38349E+00 -6.88991E+00 -7.35270E+00 -7.77261E+00 -8.15114E+00 -8.49055E+00 -8.79362E+00 -9.06340E+00
  -9.30289E+00 -9.51487E+00 -9.70207E+00 -9.86720E+00 -1.00129E+01 -1.01415E+01 -1.02549E+01 -1.03548E+01 -1.04428E+01 -1.05203E+01
  -1.05886E+01 -1.06489E+01 -1.07020E+01 -1.07486E+01 -1.07893E+01 -1.08250E+01 -1.08563E+01 -1.08835E+01 -1.09070E+01 -1.09270E+01
  -1.09440E+01 -1.09583E+01 -1.09703E+01 -1.09800E+01 -1.09875E+01 -1.09930E+01 -1.09967E+01 -1.09990E+01 -1.09999E+01 -1.09993E+01
  -1.09974E+01 -1.09942E+01 -1.09900E+01 -1.09850E+01 -1.09790E+01 -1.09720E+01 -1.09640E+01 -1.09553E+01 -1.09460E+01 -1.09361E+01
  -1.09256E+01 -1.09143E+01 -1.09023E+01 -1.08899E+01 -1.08770E+01 -1.08638E+01 -1.08500E+01 -1.08356E+01 -1.08208E+01 -1.08057E+01
  -1.07903E+01 -1.07746E+01 -1.07584E+01 -1.07418E+01 -1.07249E+01 -1.07078E+01 -1.06904E+01 -1.06727E+01 -1.06546E+01 -1.06362E+01
  -1.06176E+01 -1.05987E+01 -1.05797E+01 -1.05603E+01 -1.05405E+01 -1.05203E+01 -1.05000E+01 -1.04795E+01
 NY background values follow
    -2.313E+01   -2.311E+01   -2.308E+01   -2.306E+01   -2.304E+01   -2.301E+01   -2.299E+01   -2.296E+01   -2.294E+01   -2.291E+01
    -2.289E+01   -2.286E+01   -2.284E+01   -2.281E+01   -2.279E+01   -2.277E+01   -2.274E+01   -2.272E+01   -2.269E+01   -2.267E+01
    -2.264E+01   -2.262E+01   -2.259E+01   -2.257E+01   -2.254E+01   -2.252E+01   -2.250E+01   -2.247E+01   -2.245E+01   -2.242E+01
    -2.240E+01   -2.237E+01   -2.235E+01   -2.232E+01   -2.230E+01   -2.227E+01   -2.225E+01   -2.223E+01   -2.220E+01   -2.218E+01
    -2.215E+01   -2.213E+01   -2.210E+01   -2.208E+01   -2.205E+01   -2.203E+01   -2.200E+01   -2.198E+01   -2.195E+01   -2.193E+01
    -2.191E+01   -2.188E+01   -2.186E+01   -2.183E+01   -2.181E+01   -2.178E+01   -2.176E+01   -2.173E+01   -2.171E+01   -2.168E+01
    -2.166E+01   -2.163E+01   -2.161E+01   -2.158E+01   -2.156E+01   -2.154E+01   -2.151E+01   -2.149E+01   -2.146E+01   -2.144E+01
    -2.141E+01   -2.139E+01   -2.136E+01   -2.134E+01   -2.131E+01   -2.129E+01   -2.126E+01   -2.124E+01   -2.121E+01   -2.119E+01
    -2.117E+01   -2.114E+01   -2.112E+01   -2.109E+01   -2.107E+01   -2.104E+01   -2.102E+01   -2.099E+01   -2.097E+01   -2.094E+01
    -2.092E+01   -2.089E+01   -2.087E+01   -2.084E+01   -2.082E+01   -2.080E+01   -2.077E+01   -2.075E+01   -2.072E+01   -2.070E+01
    -2.067E+01   -2.065E+01   -2.062E+01   -2.060E+01   -2.057E+01   -2.055E+01   -2.052E+01   -2.050E+01   -2.047E+01   -2.045E+01
    -2.042E+01   -2.040E+01   -2.037E+01   -2.035E+01   -2.033E+01   -2.030E+01   -2.028E+01   -2.025E+01   -2.023E+01   -2.020E+01
    -2.018E+01   -2.015E+01   -2.013E+01   -2.010E+01   -2.008E+01   -2.005E+01   -2.003E+01   -2.000E+01   -1.998E+01   -1.995E+01
    -1.993E+01   -1.990E+01   -1.988E+01   -1.985E+01   -1.983E+01   -1.980E+01   -1.978E+01   -1.975E+01   -1.973E+01   -1.971E+01
    -1.968E+01   -1.966E+01   -1.963E+01   -1.961E+01   -1.958E+01   -1.956E+01   -1.953E+01   -1.951E+01   -1.948E+01   -1.946E+01
    -1.943E+01   -1.941E+01   -1.938E+01   -1.936E+01   -1.933E+01   -1.931E+01   -1.928E+01   -1.926E+01   -1.923E+01   -1.921E+01
    -1.918E+01   -1.916E+01   -1.913E+01   -1.911E+01   -1.908E+01   -1.906E+01   -1.903E+01   -1.901E+01   -1.898E+01   -1.896E+01
    -1.894E+01   -1.891E+01   -1.889E+01   -1.886E+01   -1.884E+01   -1.881E+01   -1.879E+01   -1.876E+01   -1.874E+01   -1.871E+01
    -1.869E+01   -1.866E+01   -1.864E+01   -1.861E+01   -1.859E+01   -1.856E+01   -1.854E+01   -1.851E+01   -1.849E+01   -1.846E+01
    -1.844E+01   -1.841E+01   -1.839E+01   -1.836E+01   -1.834E+01   -1.831E+01   -1.829E+01   -1.826E+01   -1.824E+01   -1.821E+01
    -1.819E+01   -1.816E+01   -1.814E+01   -1.811E+01   -1.809E+01   -1.806E+01   -1.804E+01   -1.801E+01   -1.799E+01   -1.796E+01
    -1.794E+01   -1.791E+01   -1.789E+01   -1.786E+01   -1.784E+01   -1.781E+01   -1.779E+01   -1.776E+01   -1.774E+01   -1.771E+01
    -1.769E+01   -1.766E+01   -1.764E+01   -1.761E+01   -1.759E+01   -1.756E+01   -1.754E+01   -1.751E+01   -1.749E+01   -1.746E+01
    -1.744E+01   -1.741E+01   -1.739E+01   -1.736E+01   -1.734E+01   -1.731E+01   -1.729E+01   -1.726E+01   -1.724E+01   -1.721E+01
    -1.719E+01   -1.716E+01   -1.714E+01   -1.711E+01   -1.709E+01   -1.706E+01   -1.704E+01   -1.701E+01   -1.699E+01   -1.696E+01
    -1.694E+01   -1.691E+01   -1.689E+01   -1.686E+01   -1.684E+01   -1.681E+01   -1.679E+01   -1.676E+01   -1.674E+01   -1.671E+01
    -1.669E+01   -1.666E+01   -1.664E+01   -1.661E+01   -1.659E+01   -1.656E+01   -1.654E+01   -1.651E+01   -1.649E+01   -1.646E+01
    -1.644E+01   -1.641E+01   -1.639E+01   -1.636E+01   -1.634E+01   -1.631E+01   -1.628E+01   -1.626E+01   -1.623E+01   -1.621E+01
    -1.618E+01   -1.616E+01   -1.613E+01   -1.611E+01   -1.608E+01   -1.606E+01   -1.603E+01   -1.601E+01   -1.598E+01   -1.596E+01
    -1.593E+01   -1.591E+01   -1.588E+01   -1.586E+01   -1.583E+01   -1.581E+01   -1.578E+01   -1.576E+01   -1.573E+01   -1.571E+01
    -1.568E+01   -1.566E+01   -1.563E+01   -1.561E+01   -1.558E+01   -1.556E+01   -1.553E+01   -1.551E+01   -1.548E+01   -1.546E+01
    -1.543E+01   -1.540E+01   -1.538E+01   -1.535E+01   -1.533E+01   -1.530E+01   -1.528E+01   -1.525E+01   -1.523E+01   -1.520E+01
    -1.518E+01   -1.515E+01   -1.513E+01   -1.510E+01   -1.508E+01   -1.505E+01   -1.503E+01   -1.500E+01   -1.498E+01   -1.495E+01
    -1.493E+01   -1.490E+01   -1.488E+01   -1.485E+01   -1.483E+01   -1.480E+01   -1.478E+01   -1.475E+01   -1.472E+01   -1.470E+01
    -1.467E+01   -1.465E+01   -1.462E+01   -1.460E+01   -1.457E+01   -1.455E+01   -1.452E+01   -1.450E+01   -1.447E+01   -1.445E+01
    -1.442E+01   -1.440E+01   -1.437E+01   -1.435E+01   -1.432E+01   -1.430E+01   -1.427E+01   -1.425E+01   -1.422E+01   -1.420E+01
    -1.417E+01   -1.414E+01   -1.412E+01   -1.409E+01   -1.407E+01   -1.404E+01   -1.402E+01   -1.399E+01   -1.397E+01   -1.394E+01
    -1.392E+01   -1.389E+01   -1.387E+01   -1.384E+01   -1.382E+01   -1.379E+01   -1.377E+01   -1.374E+01   -1.372E+01   -1.369E+01
    -1.367E+01   -1.364E+01   -1.361E+01   -1.359E+01   -1.356E+01   -1.354E+01   -1.351E+01   -1.349E+01   -1.346E+01   -1.344E+01
    -1.341E+01   -1.339E+01   -1.336E+01   -1.334E+01   -1.331E+01   -1.329E+01   -1.326E+01   -1.324E+01   -1.321E+01   -1.319E+01
    -1.316E+01   -1.313E+01   -1.311E+01   -1.308E+01   -1.306E+01   -1.303E+01   -1.301E+01   -1.298E+01   -1.296E+01   -1.293E+01
    -1.291E+01   -1.288E+01   -1.286E+01   -1.283E+01   -1.281E+01   -1.278E+01   -1.276E+01   -1.273E+01   -1.270E+01   -1.268E+01
    -1.265E+01   -1.263E+01   -1.260E+01   -1.258E+01   -1.255E+01   -1.253E+01   -1.250E+01   -1.248E+01   -1.245E+01   -1.243E+01
    -1.240E+01   -1.238E+01   -1.235E+01   -1.233E+01   -1.230E+01   -1.227E+01   -1.225E+01   -1.222E+01   -1.220E+01   -1.217E+01
    -1.215E+01   -1.212E+01   -1.210E+01   -1.207E+01   -1.205E+01   -1.202E+01   -1.200E+01   -1.197E+01   -1.195E+01   -1.192E+01
    -1.190E+01   -1.187E+01   -1.184E+01   -1.182E+01   -1.179E+01   -1.177E+01   -1.174E+01   -1.172E+01   -1.169E+01   -1.167E+01
    -1.164E+01   -1.162E+01   -1.159E+01   -1.157E+01   -1.154E+01   -1.152E+01   -1.149E+01   -1.146E+01   -1.144E+01   -1.141E+01
    -1.139E+01   -1.136E+01   -1.134E+01   -1.131E+01   -1.129E+01   -1.126E+01   -1.124E+01   -1.121E+01   -1.119E+01   -1.116E+01
    -1.114E+01   -1.111E+01   -1.108E+01   -1.106E+01   -1.103E+01   -1.101E+01   -1.098E+01   -1.096E+01   -1.093E+01   -1.091E+01
    -1.088E+01   -1.086E+01   -1.083E+01   -1.081E+01   -1.078E+01   -1.076E+01   -1.073E+01   -1.070E+01
 Cr       Conc. = 1.20E+03
