 LCModel (Version 6.3-1L) Copyright: S.W. Provencher.          Ref.: Magn. Reson. Med. 30:672-679 (1993).                
 Slice#1 Row#7 Col#9  K_02_press_1_raw_act
 36 lines in following concentration table = NCONC+1
    Conc.  %SD /Cr+PCr  Metabolite                                         
    0.000 999%   0.000 Ala                                                 
    0.000 999%   0.000 Asp                                                 
  481.936  47%   0.599 Cr                                                  
  323.162  71%   0.401 PCr                                                 
   57.452 211% 7.1E-02 GABA                                                
   27.185 447% 3.4E-02 Glc                                                 
  403.202  72%   0.501 Gln                                                 
 1.01E+03  33%   1.257 Glu                                                 
  347.158   9%   0.431 GPC                                                 
    0.000 999%   0.000 PCh                                                 
  159.620  59%   0.198 GSH                                                 
  910.001  35%   1.130 Ins                                                 
    0.000 999%   0.000 Lac                                                 
 1.47E+03  10%   1.831 NAA                                                 
  339.374  44%   0.422 NAAG                                                
    0.000 999%   0.000 Scyllo                                              
    0.000 999%   0.000 Tau                                                 
    0.000 999%   0.000 -CrCH2                                              
  347.158   9%   0.431 GPC+PCh                                             
 1.81E+03   7%   2.252 NAA+NAAG                                            
  805.098   9%   1.000 Cr+PCr                                              
 1.42E+03  33%   1.758 Glu+Gln                                             
    0.000 999%   0.000 Lip13a                                              
    0.000 999%   0.000 Lip13b                                              
    0.000 999%   0.000 Lip09                                               
 1.77E+03  14%   2.192 MM09                                                
   36.901 240% 4.6E-02 Lip20                                               
 4.52E+03  11%   5.613 MM20                                                
  517.901  36%   0.643 MM12                                                
    0.000 999%   0.000 MM14                                                
 2.02E+03  17%   2.512 MM17                                                
    0.000 999%   0.000 Lip13a+Lip13b                                       
  517.901  36%   0.643 MM14+Lip13a+Lip13b+MM12                             
 1.77E+03  14%   2.192 MM09+Lip09                                          
 4.56E+03  11%   5.659 MM20+Lip20                                          
   6 lines in following misc. output table
  FWHM = 0.038 ppm    S/N =   7                                            
  Data shift = 0.000 ppm                                                   
  Ph:  -7 deg      12.1 deg/ppm                                            
  alphaB,S = 1.4E+00,   4.8E+01                                            
   14 spline knots.   Ns = 7(1)                                            
  (11) 3 infls.   ( 9) 1 extrs.                                            
  498 points on ppm-axis = NY
      4.000000     3.992357     3.984714     3.977070     3.969427     3.961784     3.954141     3.946497     3.938854     3.931211
      3.923568     3.915925     3.908281     3.900638     3.892995     3.885352     3.877708     3.870065     3.862422     3.854779
      3.847136     3.839492     3.831849     3.824206     3.816563     3.808919     3.801276     3.793633     3.785990     3.778347
      3.770703     3.763060     3.755417     3.747774     3.740130     3.732487     3.724844     3.717201     3.709558     3.701914
      3.694271     3.686628     3.678985     3.671341     3.663698     3.656055     3.648412     3.640769     3.633125     3.625482
      3.617839     3.610196     3.602552     3.594909     3.587266     3.579623     3.571980     3.564336     3.556693     3.549050
      3.541407     3.533763     3.526120     3.518477     3.510834     3.503191     3.495547     3.487904     3.480261     3.472618
      3.464974     3.457331     3.449688     3.442045     3.434402     3.426758     3.419115     3.411472     3.403829     3.396185
      3.388542     3.380899     3.373256     3.365613     3.357969     3.350326     3.342683     3.335040     3.327396     3.319753
      3.312110     3.304467     3.296824     3.289180     3.281537     3.273894     3.266251     3.258607     3.250964     3.243321
      3.235678     3.228034     3.220391     3.212748     3.205105     3.197462     3.189818     3.182175     3.174532     3.166889
      3.159245     3.151602     3.143959     3.136316     3.128673     3.121029     3.113386     3.105743     3.098100     3.090456
      3.082813     3.075170     3.067527     3.059884     3.052240     3.044597     3.036954     3.029311     3.021667     3.014024
      3.006381     2.998738     2.991095     2.983451     2.975808     2.968165     2.960522     2.952878     2.945235     2.937592
      2.929949     2.922306     2.914662     2.907019     2.899376     2.891733     2.884089     2.876446     2.868803     2.861160
      2.853517     2.845873     2.838230     2.830587     2.822944     2.815300     2.807657     2.800014     2.792371     2.784728
      2.777084     2.769441     2.761798     2.754155     2.746511     2.738868     2.731225     2.723582     2.715939     2.708295
      2.700652     2.693009     2.685366     2.677722     2.670079     2.662436     2.654793     2.647150     2.639506     2.631863
      2.624220     2.616577     2.608933     2.601290     2.593647     2.586004     2.578361     2.570717     2.563074     2.555431
      2.547788     2.540144     2.532501     2.524858     2.517215     2.509572     2.501928     2.494285     2.486642     2.478999
      2.471355     2.463712     2.456069     2.448426     2.440783     2.433139     2.425496     2.417853     2.410210     2.402566
      2.394923     2.387280     2.379637     2.371994     2.364350     2.356707     2.349064     2.341421     2.333777     2.326134
      2.318491     2.310848     2.303205     2.295561     2.287918     2.280275     2.272632     2.264988     2.257345     2.249702
      2.242059     2.234416     2.226772     2.219129     2.211486     2.203843     2.196199     2.188556     2.180913     2.173270
      2.165627     2.157983     2.150340     2.142697     2.135054     2.127410     2.119767     2.112124     2.104481     2.096838
      2.089194     2.081551     2.073908     2.066265     2.058621     2.050978     2.043335     2.035692     2.028049     2.020405
      2.012762     2.005119     1.997476     1.989833     1.982190     1.974546     1.966903     1.959260     1.951617     1.943974
      1.936331     1.928688     1.921045     1.913402     1.905759     1.898115     1.890472     1.882829     1.875186     1.867543
      1.859900     1.852257     1.844614     1.836971     1.829327     1.821684     1.814041     1.806398     1.798755     1.791112
      1.783469     1.775826     1.768183     1.760540     1.752896     1.745253     1.737610     1.729967     1.722324     1.714681
      1.707038     1.699395     1.691752     1.684108     1.676465     1.668822     1.661179     1.653536     1.645893     1.638250
      1.630607     1.622964     1.615321     1.607677     1.600034     1.592391     1.584748     1.577105     1.569462     1.561819
      1.554176     1.546533     1.538890     1.531246     1.523603     1.515960     1.508317     1.500674     1.493031     1.485388
      1.477745     1.470102     1.462458     1.454815     1.447172     1.439529     1.431886     1.424243     1.416600     1.408957
      1.401314     1.393671     1.386027     1.378384     1.370741     1.363098     1.355455     1.347812     1.340169     1.332526
      1.324883     1.317240     1.309596     1.301953     1.294310     1.286667     1.279024     1.271381     1.263738     1.256095
      1.248452     1.240808     1.233165     1.225522     1.217879     1.210236     1.202593     1.194950     1.187307     1.179664
      1.172021     1.164377     1.156734     1.149091     1.141448     1.133805     1.126162     1.118519     1.110876     1.103233
      1.095590     1.087946     1.080303     1.072660     1.065017     1.057374     1.049731     1.042088     1.034445     1.026802
      1.019158     1.011515     1.003872     0.996229     0.988586     0.980943     0.973300     0.965657     0.958014     0.950371
      0.942727     0.935084     0.927441     0.919798     0.912155     0.904512     0.896869     0.889226     0.881583     0.873940
      0.866296     0.858653     0.851010     0.843367     0.835724     0.828081     0.820438     0.812795     0.805152     0.797508
      0.789865     0.782222     0.774579     0.766936     0.759293     0.751650     0.744007     0.736364     0.728721     0.721077
      0.713434     0.705791     0.698148     0.690505     0.682862     0.675219     0.667576     0.659933     0.652290     0.644646
      0.637003     0.629360     0.621717     0.614074     0.606431     0.598788     0.591145     0.583502     0.575858     0.568215
      0.560572     0.552929     0.545286     0.537643     0.530000     0.522357     0.514714     0.507071     0.499427     0.491784
      0.484141     0.476498     0.468855     0.461212     0.453569     0.445925     0.438282     0.430639     0.422996     0.415353
      0.407710     0.400067     0.392424     0.384780     0.377137     0.369494     0.361851     0.354208     0.346565     0.338922
      0.331278     0.323635     0.315992     0.308349     0.300706     0.293063     0.285420     0.277777     0.270133     0.262490
      0.254847     0.247204     0.239561     0.231918     0.224275     0.216631     0.208988     0.201345
 NY phased data points follow
   2.50375E+01  2.77217E+01  2.21729E+01  3.04609E+01  2.47929E+01  2.54110E+01  2.53821E+01  3.25478E+01  3.45825E+01  3.48482E+01
   3.75930E+01  4.05902E+01  3.78189E+01  3.43617E+01  3.29288E+01  2.95992E+01  2.15487E+01  2.06014E+01  1.62427E+01  2.57368E+01
   2.67590E+01  2.26517E+01  2.81963E+01  2.00552E+01  2.95929E+01  1.97294E+01  2.57480E+01  2.12767E+01  1.71321E+01  2.00644E+01
   1.98860E+01  1.48159E+01  2.59803E+01  1.34884E+01  1.91538E+01  1.04160E+01  2.32794E+01  2.03069E+01  1.68136E+01  1.57212E+01
   1.56062E+01  2.35909E+01  2.51418E+01  1.43206E+01  1.88844E+01  2.10681E+01  2.97383E+01  2.33001E+01  2.49912E+01  2.11964E+01
   1.86610E+01  2.09351E+01  1.99912E+01  1.53928E+01  1.43927E+01  1.55289E+01  2.03915E+01  1.67201E+01  1.93160E+01  1.02536E+01
   1.18055E+01  1.63094E+01  1.03733E+01  5.72423E+00  9.86734E+00  6.43409E+00  3.67581E+00  9.57691E+00  1.01160E+01  1.61008E+01
   6.02999E+00  9.60635E+00  7.45568E+00  1.18728E+01  6.66482E+00  1.99147E+00  4.90938E+00  1.03740E+01  8.70031E+00  4.00583E+00
   6.43753E+00  1.16048E+00  8.46716E+00  8.39316E+00  1.72550E-01  8.39255E+00  5.72994E+00 -3.83629E+00  8.88901E+00 -9.64674E-01
   1.24839E+01  5.03353E+00  7.98717E+00  6.06603E+00  3.82628E+00  9.15326E+00  1.42146E+01  6.54538E+00  1.53618E+01  1.28961E+01
   2.97239E+01  3.12088E+01  4.15521E+01  4.52920E+01  3.60139E+01  3.34333E+01  2.04811E+01  1.39510E+01  1.13708E+01  7.50912E+00
   1.54524E+01  3.66943E+00  8.19946E+00  6.22782E+00  7.67679E+00  1.62199E+00  3.95086E+00  3.43421E+00  4.69112E+00  7.84194E+00
   8.86836E+00  1.23587E+01  1.17389E+01  1.03281E+01  1.87003E+01  2.43833E+01  3.13144E+01  3.54620E+01  3.83320E+01  2.50784E+01
   2.12404E+01  1.81443E+01  1.37217E+01  1.42713E+01  3.37089E+00  8.57821E+00  1.38226E+01  4.06629E+00  1.31225E+00  7.30541E+00
   1.24907E+01  8.37093E+00  7.03053E+00 -1.41786E+00  2.29413E+00 -1.52571E+00  6.81305E+00  1.69086E+00 -5.70235E-01  1.38070E+00
   4.91736E-01  8.68205E-01  2.58764E+00  2.48754E+00  8.62851E-01 -1.93678E+00  3.87852E+00  1.08271E-02  4.05362E+00  6.78888E+00
   1.92132E-01  2.33033E+00 -7.02064E+00  2.48924E+00  3.39596E-01  2.06519E+00  3.04621E+00 -1.59566E+00 -1.14132E+00 -9.63747E+00
  -1.23458E+00 -1.13792E+01 -7.26259E+00 -4.93199E+00 -9.18498E+00 -6.22330E+00 -1.41046E+01 -1.54228E+01 -3.50772E+00 -1.51741E+01
  -2.03555E+00 -1.20036E+01 -8.04161E+00 -4.21667E+00 -6.37797E+00 -4.83943E+00 -4.49119E+00 -3.30605E+00 -5.01389E+00  3.19012E+00
   1.33459E+00 -1.43193E+00  2.76836E+00 -1.03719E+00 -1.20581E+01  6.67971E+00 -7.66516E+00 -8.80842E+00 -9.32326E+00 -1.03927E+01
  -5.03695E+00 -1.39963E+01 -4.73235E+00 -2.87647E+00 -1.75009E+00 -3.05161E+00 -6.37334E+00  1.00873E+00 -7.80680E+00 -3.94222E+00
  -6.13059E+00 -2.95373E+00  2.53824E+00 -3.69809E+00  6.96968E+00  4.50881E+00  1.27802E+01  7.74912E+00  1.90965E+00 -1.32711E+00
  -2.16875E-02  2.59829E+00 -8.72608E+00 -6.24905E-01  2.19533E-01 -4.44506E+00  6.29302E+00  7.24453E+00  2.50052E+00  2.68900E+00
   6.35823E+00  3.54510E+00  2.24875E+00  6.22466E-01  3.40639E-02  4.30768E+00  1.99050E+00  1.51843E-01  9.32456E+00  5.48498E+00
   5.27249E+00  5.02859E-01 -6.04260E+00  1.86926E+00  8.54908E+00  3.33279E+00  1.19802E+01  1.10238E+01  1.37925E+01  1.42033E+01
   1.09635E+01  1.89723E+01  1.92387E+01  2.98031E+01  3.04598E+01  3.30806E+01  3.49945E+01  3.25079E+01  4.46768E+01  6.43631E+01
   7.07411E+01  6.64692E+01  4.23187E+01  3.63420E+01  2.52918E+01  1.99218E+01  1.45931E+01  3.04707E+00  2.73381E+00  1.18602E+01
  -2.12507E+00  1.28685E+00 -3.97745E+00  6.95928E+00 -2.22069E+00  3.61418E-01 -3.53907E+00 -4.41903E-01 -1.10650E-01 -6.57110E+00
  -9.65871E-02 -8.70320E+00 -8.54832E+00 -8.19074E+00 -7.83983E+00 -4.56260E+00  2.50094E+00 -4.53249E+00 -2.22703E+00 -3.98223E-01
  -1.74657E+00 -7.07951E-01 -1.84072E+00  9.17122E+00 -3.24872E-02 -1.16297E+00 -7.69358E+00 -3.99096E+00 -5.70394E-01 -4.91530E+00
   4.96325E+00  7.57145E-01 -6.79105E+00 -9.43303E-01 -3.50407E+00 -9.23009E-01  7.30603E-01 -9.65425E-01  4.66808E+00  5.52250E+00
   8.15944E-01  2.29615E+00 -1.94913E+00  4.33502E+00  1.73564E+00  6.94686E+00 -8.66604E-02  1.50171E+00  4.19727E+00  3.79847E-01
  -3.92581E-02  6.28873E-01  4.58633E+00  1.61443E+00 -9.25213E-02 -3.89639E+00 -2.34181E+00 -8.77333E+00 -1.05485E+01 -1.00014E+01
  -1.48977E+01 -1.52088E+01 -1.60364E+01 -1.98670E+01 -2.11370E+01 -1.60068E+01 -3.04318E+01 -2.21182E+01 -2.74883E+01 -2.37731E+01
  -2.11991E+01 -2.28666E+01 -2.37944E+01 -1.86287E+01 -1.91733E+01 -1.80883E+01 -2.23406E+01 -1.80959E+01 -2.07787E+01 -1.94227E+01
  -1.62791E+01 -1.77831E+01 -1.00213E+01 -1.46385E+01 -1.32953E+01 -1.21657E+01 -1.37254E+01 -1.41603E+01 -7.65037E+00 -7.11478E+00
  -9.65591E+00 -1.19224E+01 -5.17960E+00 -2.16472E+00 -6.98759E+00 -3.52347E+00 -7.61390E+00 -2.43986E+00 -9.89966E+00 -2.88780E+00
  -3.51446E+00 -8.01680E+00 -1.06269E+01 -9.89485E+00 -4.53736E+00 -9.81606E+00 -1.54338E+00 -9.18338E+00 -5.18237E+00 -2.22986E+00
  -7.99731E+00 -1.05782E+01 -2.67815E+00 -3.55268E+00 -1.66251E+01 -7.01008E+00 -1.26592E+01 -1.81445E+00 -2.15919E+00  3.91590E+00
  -5.38847E+00 -1.18432E+01 -5.73571E+00 -3.23511E+00 -2.74811E+00 -1.08869E+01 -2.75847E+00 -1.85043E+00 -1.62202E+00 -5.43521E-01
  -2.68465E-01  2.38270E+00 -3.09985E+00 -4.84879E+00  2.61881E+00 -1.18033E-02  6.00342E+00  1.17897E+00  9.93065E-01 -9.81179E-01
  -1.90810E+00 -4.83683E+00 -1.00664E+01 -1.11022E+01 -5.84114E+00 -8.84966E+00 -6.11547E+00 -1.01219E+01 -6.10648E+00 -1.62173E+01
  -1.41180E+01 -9.06940E+00 -9.11143E+00 -8.68964E+00 -1.08733E+01 -7.46598E+00 -6.44347E+00 -7.87611E+00 -1.19147E+01 -1.30520E+01
  -5.94409E+00 -9.06378E+00 -1.49453E+01 -5.04707E+00 -4.19841E+00 -5.92141E+00 -8.85987E+00 -9.89245E+00 -4.99317E+00 -6.25547E+00
  -8.58866E+00 -1.30966E+01 -1.45897E+01 -6.96682E+00 -5.79851E+00 -5.28761E+00 -1.07199E+01 -1.21428E+01 -5.50406E+00 -1.04434E+01
  -1.02064E+01 -8.56800E+00 -3.85836E+00 -3.28452E+00 -1.21679E+01 -1.11085E+01 -1.25840E+01 -7.49395E+00 -3.05715E+00 -1.00817E+01
  -1.76321E+01 -5.47604E+00 -9.87764E+00 -1.02246E+01 -1.50636E+00 -4.78666E+00 -6.76305E+00 -7.95036E+00 -8.11355E+00 -1.65214E+01
  -9.67939E+00 -8.11624E+00 -1.08361E+01 -1.52816E+01 -1.06166E+01 -7.31665E+00 -1.11361E+01 -1.08073E+01 -5.39119E+00 -1.05138E+01
  -9.58165E+00 -2.68764E+00 -1.39284E+01 -8.55888E+00 -4.67187E+00 -8.27312E+00 -1.46955E+01  1.06204E-01 -1.29063E+01 -1.12313E+01
  -8.45405E+00 -1.95085E+01 -1.29759E+01 -1.34188E+01 -3.96210E+00 -7.38344E+00 -1.05599E+01 -7.35743E+00
 NY points of the fit to the data follow
   2.19473E+01  2.17214E+01  2.20756E+01  2.26586E+01  2.35403E+01  2.51785E+01  2.72322E+01  2.98104E+01  3.29749E+01  3.61915E+01
   3.84091E+01  3.86860E+01  3.67636E+01  3.34252E+01  2.99854E+01  2.71903E+01  2.50759E+01  2.33430E+01  2.19760E+01  2.09459E+01
   2.01825E+01  1.96457E+01  1.92849E+01  1.92183E+01  1.90951E+01  1.87802E+01  1.84542E+01  1.84729E+01  1.91316E+01  2.02979E+01
   2.15809E+01  2.25243E+01  2.28468E+01  2.24499E+01  2.13697E+01  1.98763E+01  1.84118E+01  1.71743E+01  1.62833E+01  1.60501E+01
   1.64780E+01  1.71512E+01  1.76519E+01  1.81181E+01  1.90550E+01  2.06163E+01  2.21906E+01  2.28163E+01  2.20087E+01  2.01642E+01
   1.80467E+01  1.62252E+01  1.49988E+01  1.42804E+01  1.38529E+01  1.36132E+01  1.35841E+01  1.38603E+01  1.43544E+01  1.47878E+01
   1.48433E+01  1.43716E+01  1.35081E+01  1.25321E+01  1.17664E+01  1.13912E+01  1.13162E+01  1.13896E+01  1.15450E+01  1.17727E+01
   1.20165E+01  1.21669E+01  1.21013E+01  1.18127E+01  1.14164E+01  1.10207E+01  1.06803E+01  1.03825E+01  1.01094E+01  9.81085E+00
   9.44064E+00  9.05393E+00  8.67678E+00  8.26763E+00  7.70293E+00  6.92461E+00  6.06186E+00  5.38359E+00  5.08760E+00  5.22417E+00
   5.63035E+00  6.11821E+00  6.61219E+00  7.09558E+00  7.59753E+00  8.74311E+00  1.13581E+01  1.30479E+01  1.39524E+01  1.69828E+01
   2.42590E+01  3.42190E+01  4.20748E+01  4.34286E+01  3.80983E+01  3.00061E+01  2.27190E+01  1.73730E+01  1.35255E+01  1.05981E+01
   8.43275E+00  6.82816E+00  6.17404E+00  5.99219E+00  5.92197E+00  5.90665E+00  5.91422E+00  5.94578E+00  6.05999E+00  6.57174E+00
   8.36887E+00  1.05333E+01  1.18539E+01  1.38040E+01  1.84460E+01  2.58252E+01  3.31111E+01  3.64633E+01  3.42099E+01  2.83894E+01
   2.22539E+01  1.74396E+01  1.39010E+01  1.10061E+01  8.49642E+00  6.36150E+00  4.94914E+00  4.37514E+00  4.25084E+00  4.35483E+00
   4.48997E+00  4.50422E+00  4.34398E+00  4.04698E+00  3.67957E+00  3.30303E+00  2.94482E+00  2.58467E+00  2.23268E+00  1.91107E+00
   1.60158E+00  1.28852E+00  9.64049E-01  6.27403E-01  2.86199E-01  7.32076E-02  2.78938E-02 -2.12084E-02 -2.63771E-01 -8.54135E-01
  -1.60263E+00 -2.06636E+00 -2.02839E+00 -1.71668E+00 -1.52972E+00 -1.73614E+00 -2.31302E+00 -3.00072E+00 -3.58619E+00 -4.00330E+00
  -4.24380E+00 -4.31859E+00 -4.48058E+00 -4.92765E+00 -5.57533E+00 -6.03696E+00 -5.98590E+00 -5.53947E+00 -5.18921E+00 -5.26441E+00
  -5.63493E+00 -5.81813E+00 -5.56896E+00 -5.16531E+00 -4.92798E+00 -4.84254E+00 -4.64281E+00 -4.04699E+00 -3.06155E+00 -2.03045E+00
  -1.31907E+00 -1.16182E+00 -1.43357E+00 -1.88185E+00 -2.31960E+00 -2.66887E+00 -2.91799E+00 -2.96005E+00 -2.73326E+00 -2.24263E+00
  -1.58792E+00 -8.77319E-01 -2.28817E-01  3.49335E-02 -1.15213E-01 -8.14433E-01 -2.22070E+00 -4.05468E+00 -5.72346E+00 -6.60247E+00
  -6.62619E+00 -6.01557E+00 -4.71260E+00 -2.62487E+00 -1.35547E-01  1.73737E+00  2.16564E+00  1.20929E+00 -5.14323E-01 -2.70989E+00
  -5.02002E+00 -6.79030E+00 -7.30269E+00 -6.22565E+00 -4.10046E+00 -1.80163E+00  1.01024E-01  1.37407E+00  2.01101E+00  2.09496E+00
   1.98265E+00  1.97201E+00  2.15545E+00  2.50895E+00  3.00457E+00  3.58805E+00  4.18785E+00  4.85417E+00  5.42913E+00  5.68830E+00
   5.53743E+00  5.23343E+00  5.18706E+00  5.66326E+00  6.62445E+00  7.74750E+00  8.79454E+00  9.66791E+00  1.05694E+01  1.18043E+01
   1.27790E+01  1.37303E+01  1.58864E+01  2.14697E+01  2.90507E+01  3.36266E+01  3.59484E+01  4.04510E+01  4.98449E+01  6.08554E+01
   6.64531E+01  6.20650E+01  5.01189E+01  3.68285E+01  2.59688E+01  1.81198E+01  1.22013E+01  7.56472E+00  3.88399E+00  1.24683E+00
  -4.05440E-02 -7.99265E-01 -1.30720E+00 -1.68310E+00 -2.05687E+00 -2.52113E+00 -3.05601E+00 -3.61764E+00 -4.17041E+00 -4.69105E+00
  -5.15692E+00 -5.55073E+00 -5.86939E+00 -6.12969E+00 -6.34992E+00 -6.53400E+00 -6.68878E+00 -6.81594E+00 -6.90043E+00 -6.91577E+00
  -6.84486E+00 -6.68795E+00 -6.45946E+00 -6.16729E+00 -5.81266E+00 -5.39198E+00 -4.90338E+00 -4.34503E+00 -3.71232E+00 -3.00298E+00
  -2.22719E+00 -1.40616E+00 -5.67548E-01  2.59971E-01  1.04890E+00  1.77250E+00  2.40502E+00  2.92321E+00  3.30552E+00  3.53631E+00
   3.60433E+00  3.50338E+00  3.23406E+00  2.80392E+00  2.22656E+00  1.52055E+00  7.07948E-01 -1.86537E-01 -1.13656E+00 -2.11557E+00
  -3.09855E+00 -4.06321E+00 -4.99065E+00 -5.86551E+00 -6.67596E+00 -7.41398E+00 -8.07550E+00 -8.65992E+00 -9.16930E+00 -9.60741E+00
  -9.97923E+00 -1.02907E+01 -1.05484E+01 -1.07593E+01 -1.09298E+01 -1.10655E+01 -1.11713E+01 -1.12515E+01 -1.13099E+01 -1.13497E+01
  -1.13734E+01 -1.13825E+01 -1.13780E+01 -1.13609E+01 -1.13320E+01 -1.12918E+01 -1.12405E+01 -1.11779E+01 -1.11040E+01 -1.10192E+01
  -1.09239E+01 -1.08189E+01 -1.07047E+01 -1.05820E+01 -1.04520E+01 -1.03167E+01 -1.01779E+01 -1.00376E+01 -9.89801E+00 -9.76112E+00
  -9.62939E+00 -9.50528E+00 -9.39094E+00 -9.28791E+00 -9.19726E+00 -9.11971E+00 -9.05558E+00 -9.00463E+00 -8.96573E+00 -8.93690E+00
  -8.91552E+00 -8.89868E+00 -8.88309E+00 -8.86498E+00 -8.84003E+00 -8.80363E+00 -8.75116E+00 -8.67823E+00 -8.58063E+00 -8.45420E+00
  -8.29486E+00 -8.09898E+00 -7.86363E+00 -7.58673E+00 -7.26695E+00 -6.90376E+00 -6.49758E+00 -6.05020E+00 -5.56502E+00 -5.04707E+00
  -4.50284E+00 -3.94021E+00 -3.36852E+00 -2.79861E+00 -2.24261E+00 -1.71334E+00 -1.22378E+00 -7.86505E-01 -4.13427E-01 -1.15336E-01
   9.86555E-02  2.21775E-01  2.50032E-01  1.82302E-01  2.02139E-02 -2.32001E-01 -5.67574E-01 -9.77392E-01 -1.45044E+00 -1.97452E+00
  -2.53692E+00 -3.12498E+00 -3.72638E+00 -4.32949E+00 -4.92376E+00 -5.50022E+00 -6.05162E+00 -6.57247E+00 -7.05872E+00 -7.50770E+00
  -7.91805E+00 -8.28968E+00 -8.62360E+00 -8.92150E+00 -9.18545E+00 -9.41772E+00 -9.62086E+00 -9.79764E+00 -9.95086E+00 -1.00831E+01
  -1.01967E+01 -1.02936E+01 -1.03758E+01 -1.04452E+01 -1.05036E+01 -1.05522E+01 -1.05922E+01 -1.06244E+01 -1.06500E+01 -1.06697E+01
  -1.06844E+01 -1.06946E+01 -1.07006E+01 -1.07029E+01 -1.07019E+01 -1.06981E+01 -1.06918E+01 -1.06833E+01 -1.06725E+01 -1.06597E+01
  -1.06452E+01 -1.06293E+01 -1.06121E+01 -1.05935E+01 -1.05736E+01 -1.05526E+01 -1.05307E+01 -1.05080E+01 -1.04845E+01 -1.04601E+01
  -1.04349E+01 -1.04090E+01 -1.03826E+01 -1.03557E+01 -1.03282E+01 -1.03001E+01 -1.02715E+01 -1.02425E+01 -1.02133E+01 -1.01836E+01
  -1.01536E+01 -1.01230E+01 -1.00921E+01 -1.00611E+01 -1.00298E+01 -9.99829E+00 -9.96636E+00 -9.93411E+00 -9.90169E+00 -9.86917E+00
  -9.83650E+00 -9.80354E+00 -9.77026E+00 -9.73678E+00 -9.70322E+00 -9.66959E+00 -9.63579E+00 -9.60171E+00 -9.56737E+00 -9.53291E+00
  -9.49842E+00 -9.46384E+00 -9.42903E+00 -9.39394E+00 -9.35864E+00 -9.32326E+00 -9.28782E+00 -9.25221E+00
 NY background values follow
     1.962E+01    1.947E+01    1.932E+01    1.917E+01    1.901E+01    1.886E+01    1.871E+01    1.856E+01    1.840E+01    1.825E+01
     1.810E+01    1.795E+01    1.779E+01    1.764E+01    1.749E+01    1.734E+01    1.719E+01    1.703E+01    1.688E+01    1.673E+01
     1.658E+01    1.642E+01    1.627E+01    1.612E+01    1.597E+01    1.582E+01    1.567E+01    1.552E+01    1.536E+01    1.521E+01
     1.506E+01    1.491E+01    1.476E+01    1.461E+01    1.446E+01    1.431E+01    1.416E+01    1.401E+01    1.386E+01    1.371E+01
     1.356E+01    1.341E+01    1.326E+01    1.311E+01    1.296E+01    1.282E+01    1.267E+01    1.252E+01    1.237E+01    1.222E+01
     1.208E+01    1.193E+01    1.178E+01    1.164E+01    1.149E+01    1.135E+01    1.120E+01    1.106E+01    1.091E+01    1.077E+01
     1.062E+01    1.048E+01    1.034E+01    1.019E+01    1.005E+01    9.907E+00    9.765E+00    9.624E+00    9.482E+00    9.342E+00
     9.201E+00    9.061E+00    8.922E+00    8.783E+00    8.644E+00    8.506E+00    8.369E+00    8.231E+00    8.095E+00    7.958E+00
     7.823E+00    7.687E+00    7.553E+00    7.418E+00    7.285E+00    7.152E+00    7.019E+00    6.887E+00    6.755E+00    6.624E+00
     6.494E+00    6.364E+00    6.235E+00    6.106E+00    5.978E+00    5.851E+00    5.724E+00    5.597E+00    5.471E+00    5.346E+00
     5.221E+00    5.097E+00    4.974E+00    4.851E+00    4.728E+00    4.606E+00    4.485E+00    4.364E+00    4.243E+00    4.124E+00
     4.004E+00    3.885E+00    3.767E+00    3.649E+00    3.532E+00    3.415E+00    3.299E+00    3.183E+00    3.068E+00    2.953E+00
     2.839E+00    2.725E+00    2.612E+00    2.499E+00    2.387E+00    2.275E+00    2.163E+00    2.052E+00    1.942E+00    1.832E+00
     1.722E+00    1.613E+00    1.505E+00    1.397E+00    1.289E+00    1.182E+00    1.075E+00    9.683E-01    8.623E-01    7.568E-01
     6.517E-01    5.470E-01    4.428E-01    3.391E-01    2.357E-01    1.328E-01    3.039E-02   -7.161E-02   -1.732E-01   -2.743E-01
    -3.750E-01   -4.752E-01   -5.750E-01   -6.743E-01   -7.732E-01   -8.717E-01   -9.697E-01   -1.067E+00   -1.164E+00   -1.261E+00
    -1.357E+00   -1.453E+00   -1.548E+00   -1.643E+00   -1.738E+00   -1.832E+00   -1.925E+00   -2.018E+00   -2.111E+00   -2.203E+00
    -2.295E+00   -2.386E+00   -2.477E+00   -2.567E+00   -2.657E+00   -2.747E+00   -2.836E+00   -2.924E+00   -3.012E+00   -3.100E+00
    -3.187E+00   -3.274E+00   -3.360E+00   -3.446E+00   -3.531E+00   -3.616E+00   -3.701E+00   -3.785E+00   -3.869E+00   -3.952E+00
    -4.035E+00   -4.117E+00   -4.199E+00   -4.281E+00   -4.362E+00   -4.443E+00   -4.523E+00   -4.603E+00   -4.683E+00   -4.762E+00
    -4.841E+00   -4.919E+00   -4.997E+00   -5.075E+00   -5.152E+00   -5.229E+00   -5.306E+00   -5.382E+00   -5.458E+00   -5.534E+00
    -5.609E+00   -5.684E+00   -5.759E+00   -5.833E+00   -5.907E+00   -5.981E+00   -6.054E+00   -6.127E+00   -6.200E+00   -6.272E+00
    -6.344E+00   -6.416E+00   -6.488E+00   -6.559E+00   -6.630E+00   -6.701E+00   -6.771E+00   -6.842E+00   -6.911E+00   -6.981E+00
    -7.051E+00   -7.120E+00   -7.189E+00   -7.257E+00   -7.326E+00   -7.394E+00   -7.462E+00   -7.529E+00   -7.596E+00   -7.664E+00
    -7.730E+00   -7.797E+00   -7.863E+00   -7.929E+00   -7.995E+00   -8.061E+00   -8.126E+00   -8.191E+00   -8.256E+00   -8.320E+00
    -8.385E+00   -8.449E+00   -8.513E+00   -8.576E+00   -8.639E+00   -8.703E+00   -8.765E+00   -8.828E+00   -8.890E+00   -8.952E+00
    -9.014E+00   -9.076E+00   -9.137E+00   -9.198E+00   -9.259E+00   -9.320E+00   -9.381E+00   -9.441E+00   -9.501E+00   -9.560E+00
    -9.620E+00   -9.679E+00   -9.738E+00   -9.797E+00   -9.856E+00   -9.914E+00   -9.972E+00   -1.003E+01   -1.009E+01   -1.014E+01
    -1.020E+01   -1.026E+01   -1.031E+01   -1.037E+01   -1.042E+01   -1.048E+01   -1.053E+01   -1.059E+01   -1.064E+01   -1.070E+01
    -1.075E+01   -1.080E+01   -1.085E+01   -1.091E+01   -1.096E+01   -1.101E+01   -1.106E+01   -1.111E+01   -1.116E+01   -1.121E+01
    -1.126E+01   -1.130E+01   -1.135E+01   -1.140E+01   -1.144E+01   -1.149E+01   -1.153E+01   -1.158E+01   -1.162E+01   -1.166E+01
    -1.171E+01   -1.175E+01   -1.179E+01   -1.183E+01   -1.187E+01   -1.191E+01   -1.195E+01   -1.199E+01   -1.202E+01   -1.206E+01
    -1.210E+01   -1.213E+01   -1.216E+01   -1.220E+01   -1.223E+01   -1.226E+01   -1.229E+01   -1.233E+01   -1.235E+01   -1.238E+01
    -1.241E+01   -1.244E+01   -1.247E+01   -1.249E+01   -1.252E+01   -1.254E+01   -1.257E+01   -1.259E+01   -1.261E+01   -1.263E+01
    -1.265E+01   -1.267E+01   -1.269E+01   -1.271E+01   -1.273E+01   -1.274E+01   -1.276E+01   -1.278E+01   -1.279E+01   -1.280E+01
    -1.282E+01   -1.283E+01   -1.284E+01   -1.285E+01   -1.286E+01   -1.287E+01   -1.287E+01   -1.288E+01   -1.289E+01   -1.289E+01
    -1.290E+01   -1.290E+01   -1.290E+01   -1.290E+01   -1.290E+01   -1.290E+01   -1.290E+01   -1.290E+01   -1.290E+01   -1.289E+01
    -1.289E+01   -1.289E+01   -1.288E+01   -1.287E+01   -1.287E+01   -1.286E+01   -1.285E+01   -1.284E+01   -1.283E+01   -1.282E+01
    -1.281E+01   -1.280E+01   -1.278E+01   -1.277E+01   -1.275E+01   -1.274E+01   -1.272E+01   -1.271E+01   -1.269E+01   -1.267E+01
    -1.266E+01   -1.264E+01   -1.262E+01   -1.260E+01   -1.258E+01   -1.256E+01   -1.254E+01   -1.252E+01   -1.249E+01   -1.247E+01
    -1.245E+01   -1.242E+01   -1.240E+01   -1.237E+01   -1.235E+01   -1.232E+01   -1.230E+01   -1.227E+01   -1.224E+01   -1.222E+01
    -1.219E+01   -1.216E+01   -1.213E+01   -1.210E+01   -1.208E+01   -1.205E+01   -1.202E+01   -1.199E+01   -1.196E+01   -1.193E+01
    -1.189E+01   -1.186E+01   -1.183E+01   -1.180E+01   -1.177E+01   -1.173E+01   -1.170E+01   -1.167E+01   -1.164E+01   -1.160E+01
    -1.157E+01   -1.153E+01   -1.150E+01   -1.147E+01   -1.143E+01   -1.140E+01   -1.136E+01   -1.133E+01   -1.129E+01   -1.126E+01
    -1.122E+01   -1.119E+01   -1.115E+01   -1.111E+01   -1.108E+01   -1.104E+01   -1.101E+01   -1.097E+01   -1.093E+01   -1.090E+01
    -1.086E+01   -1.083E+01   -1.079E+01   -1.075E+01   -1.072E+01   -1.068E+01   -1.064E+01   -1.061E+01   -1.057E+01   -1.053E+01
    -1.050E+01   -1.046E+01   -1.043E+01   -1.039E+01   -1.035E+01   -1.032E+01   -1.028E+01   -1.024E+01   -1.021E+01   -1.017E+01
    -1.013E+01   -1.010E+01   -1.006E+01   -1.002E+01   -9.987E+00   -9.950E+00   -9.914E+00   -9.877E+00   -9.840E+00   -9.804E+00
    -9.767E+00   -9.731E+00   -9.694E+00   -9.657E+00   -9.621E+00   -9.584E+00   -9.548E+00   -9.511E+00   -9.475E+00   -9.438E+00
    -9.402E+00   -9.365E+00   -9.329E+00   -9.292E+00   -9.256E+00   -9.219E+00   -9.183E+00   -9.146E+00
 Cr       Conc. = 4.82E+02
