 LCModel (Version 6.3-1L) Copyright: S.W. Provencher.          Ref.: Magn. Reson. Med. 30:672-679 (1993).                
 Slice#1 Row#3 Col#10  K_02_press_1_raw_act
 36 lines in following concentration table = NCONC+1
    Conc.  %SD /Cr+PCr  Metabolite                                         
 1.79E+03  22%   1.194 Ala                                                 
    0.000 999%   0.000 Asp                                                 
    0.000 999%   0.000 Cr                                                  
 1.50E+03   5%   1.000 PCr                                                 
  245.365  70%   0.164 GABA                                                
    5.428 999% 3.6E-03 Glc                                                 
 2.25E+03  32%   1.500 Gln                                                 
 2.37E+03  36%   1.579 Glu                                                 
  593.685   5%   0.396 GPC                                                 
    0.000 999%   0.000 PCh                                                 
  705.709  21%   0.471 GSH                                                 
 2.20E+03  15%   1.467 Ins                                                 
   96.197 424% 6.4E-02 Lac                                                 
 2.11E+03   6%   1.408 NAA                                                 
    0.000 999%   0.000 NAAG                                                
  179.599  20%   0.120 Scyllo                                              
  106.545 210% 7.1E-02 Tau                                                 
   98.894 154% 6.6E-02 -CrCH2                                              
  593.685   5%   0.396 GPC+PCh                                             
 2.11E+03   6%   1.408 NAA+NAAG                                            
 1.50E+03   5%   1.000 Cr+PCr                                              
 4.62E+03  31%   3.079 Glu+Gln                                             
  310.779  86%   0.207 Lip13a                                              
    0.000 999%   0.000 Lip13b                                              
    0.000 999%   0.000 Lip09                                               
 2.07E+03   9%   1.377 MM09                                                
   53.795 183% 3.6E-02 Lip20                                               
 3.15E+03  12%   2.101 MM20                                                
  757.536  21%   0.505 MM12                                                
 3.18E+03  14%   2.120 MM14                                                
 1.69E+03  22%   1.129 MM17                                                
  310.779  86%   0.207 Lip13a+Lip13b                                       
 4.25E+03  12%   2.832 MM14+Lip13a+Lip13b+MM12                             
 2.07E+03   9%   1.377 MM09+Lip09                                          
 3.20E+03  12%   2.137 MM20+Lip20                                          
   6 lines in following misc. output table
  FWHM = 0.107 ppm    S/N =   8                                            
  Data shift = 0.084 ppm                                                   
  Ph: -16 deg      -9.1 deg/ppm                                            
  alphaB,S = 6.2E+01,   2.6E+02                                            
   14 spline knots.   Ns = 7(2)                                            
  ( 4) 2 infls.   ( 1) 1 extrs.                                            
  498 points on ppm-axis = NY
      4.000000     3.992357     3.984714     3.977070     3.969427     3.961784     3.954141     3.946497     3.938854     3.931211
      3.923568     3.915925     3.908281     3.900638     3.892995     3.885352     3.877708     3.870065     3.862422     3.854779
      3.847136     3.839492     3.831849     3.824206     3.816563     3.808919     3.801276     3.793633     3.785990     3.778347
      3.770703     3.763060     3.755417     3.747774     3.740130     3.732487     3.724844     3.717201     3.709558     3.701914
      3.694271     3.686628     3.678985     3.671341     3.663698     3.656055     3.648412     3.640769     3.633125     3.625482
      3.617839     3.610196     3.602552     3.594909     3.587266     3.579623     3.571980     3.564336     3.556693     3.549050
      3.541407     3.533763     3.526120     3.518477     3.510834     3.503191     3.495547     3.487904     3.480261     3.472618
      3.464974     3.457331     3.449688     3.442045     3.434402     3.426758     3.419115     3.411472     3.403829     3.396185
      3.388542     3.380899     3.373256     3.365613     3.357969     3.350326     3.342683     3.335040     3.327396     3.319753
      3.312110     3.304467     3.296824     3.289180     3.281537     3.273894     3.266251     3.258607     3.250964     3.243321
      3.235678     3.228034     3.220391     3.212748     3.205105     3.197462     3.189818     3.182175     3.174532     3.166889
      3.159245     3.151602     3.143959     3.136316     3.128673     3.121029     3.113386     3.105743     3.098100     3.090456
      3.082813     3.075170     3.067527     3.059884     3.052240     3.044597     3.036954     3.029311     3.021667     3.014024
      3.006381     2.998738     2.991095     2.983451     2.975808     2.968165     2.960522     2.952878     2.945235     2.937592
      2.929949     2.922306     2.914662     2.907019     2.899376     2.891733     2.884089     2.876446     2.868803     2.861160
      2.853517     2.845873     2.838230     2.830587     2.822944     2.815300     2.807657     2.800014     2.792371     2.784728
      2.777084     2.769441     2.761798     2.754155     2.746511     2.738868     2.731225     2.723582     2.715939     2.708295
      2.700652     2.693009     2.685366     2.677722     2.670079     2.662436     2.654793     2.647150     2.639506     2.631863
      2.624220     2.616577     2.608933     2.601290     2.593647     2.586004     2.578361     2.570717     2.563074     2.555431
      2.547788     2.540144     2.532501     2.524858     2.517215     2.509572     2.501928     2.494285     2.486642     2.478999
      2.471355     2.463712     2.456069     2.448426     2.440783     2.433139     2.425496     2.417853     2.410210     2.402566
      2.394923     2.387280     2.379637     2.371994     2.364350     2.356707     2.349064     2.341421     2.333777     2.326134
      2.318491     2.310848     2.303205     2.295561     2.287918     2.280275     2.272632     2.264988     2.257345     2.249702
      2.242059     2.234416     2.226772     2.219129     2.211486     2.203843     2.196199     2.188556     2.180913     2.173270
      2.165627     2.157983     2.150340     2.142697     2.135054     2.127410     2.119767     2.112124     2.104481     2.096838
      2.089194     2.081551     2.073908     2.066265     2.058621     2.050978     2.043335     2.035692     2.028049     2.020405
      2.012762     2.005119     1.997476     1.989833     1.982190     1.974546     1.966903     1.959260     1.951617     1.943974
      1.936331     1.928688     1.921045     1.913402     1.905759     1.898115     1.890472     1.882829     1.875186     1.867543
      1.859900     1.852257     1.844614     1.836971     1.829327     1.821684     1.814041     1.806398     1.798755     1.791112
      1.783469     1.775826     1.768183     1.760540     1.752896     1.745253     1.737610     1.729967     1.722324     1.714681
      1.707038     1.699395     1.691752     1.684108     1.676465     1.668822     1.661179     1.653536     1.645893     1.638250
      1.630607     1.622964     1.615321     1.607677     1.600034     1.592391     1.584748     1.577105     1.569462     1.561819
      1.554176     1.546533     1.538890     1.531246     1.523603     1.515960     1.508317     1.500674     1.493031     1.485388
      1.477745     1.470102     1.462458     1.454815     1.447172     1.439529     1.431886     1.424243     1.416600     1.408957
      1.401314     1.393671     1.386027     1.378384     1.370741     1.363098     1.355455     1.347812     1.340169     1.332526
      1.324883     1.317240     1.309596     1.301953     1.294310     1.286667     1.279024     1.271381     1.263738     1.256095
      1.248452     1.240808     1.233165     1.225522     1.217879     1.210236     1.202593     1.194950     1.187307     1.179664
      1.172021     1.164377     1.156734     1.149091     1.141448     1.133805     1.126162     1.118519     1.110876     1.103233
      1.095590     1.087946     1.080303     1.072660     1.065017     1.057374     1.049731     1.042088     1.034445     1.026802
      1.019158     1.011515     1.003872     0.996229     0.988586     0.980943     0.973300     0.965657     0.958014     0.950371
      0.942727     0.935084     0.927441     0.919798     0.912155     0.904512     0.896869     0.889226     0.881583     0.873940
      0.866296     0.858653     0.851010     0.843367     0.835724     0.828081     0.820438     0.812795     0.805152     0.797508
      0.789865     0.782222     0.774579     0.766936     0.759293     0.751650     0.744007     0.736364     0.728721     0.721077
      0.713434     0.705791     0.698148     0.690505     0.682862     0.675219     0.667576     0.659933     0.652290     0.644646
      0.637003     0.629360     0.621717     0.614074     0.606431     0.598788     0.591145     0.583502     0.575858     0.568215
      0.560572     0.552929     0.545286     0.537643     0.530000     0.522357     0.514714     0.507071     0.499427     0.491784
      0.484141     0.476498     0.468855     0.461212     0.453569     0.445925     0.438282     0.430639     0.422996     0.415353
      0.407710     0.400067     0.392424     0.384780     0.377137     0.369494     0.361851     0.354208     0.346565     0.338922
      0.331278     0.323635     0.315992     0.308349     0.300706     0.293063     0.285420     0.277777     0.270133     0.262490
      0.254847     0.247204     0.239561     0.231918     0.224275     0.216631     0.208988     0.201345
 NY phased data points follow
   1.11224E+01  1.41347E+01  1.22600E+01  1.63313E+01  1.38682E+01  1.94263E+01  1.92068E+01  1.93952E+01  1.82895E+01  1.68190E+01
   2.20604E+01  1.61506E+01  1.28191E+01  1.00121E+01  9.01208E+00  1.27599E+01  8.79870E+00  9.08088E+00  7.16373E+00  9.50780E+00
   7.41161E+00  8.87245E+00  7.73229E+00  4.39207E+00  1.29852E+01  8.48622E+00  1.45155E+01  1.15554E+01  1.01376E+01  8.74718E+00
   1.57828E+01  8.63880E+00  1.10778E+01  8.71632E+00  1.27929E+01  1.08391E+01  6.37369E+00  1.58166E+01  1.24968E+01  1.65075E+01
   1.08845E+01  1.26906E+01  1.19753E+01  1.10678E+01  1.42575E+01  1.32633E+01  1.20875E+01  1.11839E+01  7.84026E+00  1.16867E+01
   9.03326E+00  6.21338E+00  3.95302E+00  1.01604E+01  7.46045E+00  1.01344E+01  1.11703E+01  7.85165E+00  1.15842E+00  6.79400E+00
   4.60429E+00  2.28021E+00  7.08673E-01  2.48903E+00  1.05359E+00  1.62608E+00  3.25244E+00  5.22922E+00  2.17809E+00  2.60501E+00
   5.07466E+00  2.88364E+00  1.65919E+00  2.60296E+00  2.77887E+00  3.74789E+00  1.64406E+00  8.05793E-01  1.49304E+00  6.27699E+00
   4.69011E+00  2.44707E+00  7.49664E+00  5.05755E+00  6.34555E+00  2.43778E+00  5.33365E+00  7.49768E+00  5.66640E+00  9.63308E+00
   1.21012E+01  1.43078E+01  1.40426E+01  1.16254E+01  1.83817E+01  1.52841E+01  1.87134E+01  2.15533E+01  2.67365E+01  3.08234E+01
   2.79112E+01  3.14786E+01  2.96818E+01  2.20751E+01  1.78278E+01  1.83075E+01  1.43078E+01  1.54033E+01  1.15016E+01  1.14047E+01
   1.45984E+01  1.00603E+01  1.03954E+01  1.18183E+01  1.24097E+01  1.22264E+01  1.45779E+01  1.78408E+01  1.29637E+01  1.16306E+01
   1.69000E+01  2.45437E+01  2.92650E+01  2.86870E+01  2.75014E+01  2.91754E+01  3.01257E+01  2.45339E+01  2.23118E+01  2.22755E+01
   1.71191E+01  1.29164E+01  1.67487E+01  1.23192E+01  7.22738E+00  8.50006E+00  7.88233E+00  4.42720E+00  9.30129E+00  8.06474E+00
   3.32861E+00  2.85983E+00  5.73997E+00  6.04101E+00  4.71184E+00  3.62270E+00  4.28708E+00  4.76379E+00  7.47733E+00  2.83076E+00
   4.64443E+00  1.43087E+00  1.64246E+00 -2.31825E-01  5.60007E+00  4.00807E+00 -1.19818E-01 -1.64960E+00 -1.84959E+00 -4.32982E-01
   6.59328E-01  1.76518E+00 -2.00010E-02 -1.65379E+00 -2.60498E+00 -4.62613E+00 -2.26842E+00 -2.47768E+00 -4.09226E+00 -4.50297E+00
  -4.66057E+00 -7.13408E+00 -5.80423E+00 -8.88658E+00 -7.22962E+00 -6.96009E+00 -3.27404E+00 -6.71086E+00 -7.43126E+00 -3.51483E+00
  -4.85312E+00 -2.67031E+00 -4.72454E+00 -1.48373E+00 -6.93559E+00 -2.34590E+00 -5.94835E+00 -5.60963E+00 -7.68176E+00  2.16576E+00
  -1.00377E+00  3.11363E+00 -1.98541E+00 -1.06270E+00 -1.12262E+00 -6.11741E+00 -7.58505E+00 -1.07672E+00 -1.25524E+00 -1.74652E+00
   1.20467E+00 -4.24102E-01  2.80149E+00 -1.90509E+00  6.28262E-02  1.99042E+00  4.42603E-01 -1.41812E+00 -1.64729E+00  2.78494E-01
  -3.59567E-01  3.20317E+00  3.26730E+00  9.63861E+00  8.65468E+00  5.12263E+00  7.67012E+00  1.14277E+00  4.84051E+00  1.65599E+00
   3.48441E+00  6.81710E-01  3.90499E+00  3.12545E+00  3.07789E+00  1.12501E+00  6.28922E+00  2.79968E+00  4.54503E+00  3.94223E+00
   8.28171E+00  6.44276E+00  5.35398E+00  7.53590E+00  5.00899E+00  7.08115E+00  7.31761E+00  7.64566E+00  9.99529E+00  8.98977E+00
   9.69554E+00  8.78184E+00  1.32727E+01  1.34756E+01  1.18052E+01  1.78046E+01  1.79712E+01  1.76812E+01  2.85514E+01  2.40539E+01
   2.80139E+01  2.73814E+01  2.75473E+01  2.88690E+01  3.05611E+01  4.24748E+01  4.97218E+01  5.60153E+01  5.52169E+01  5.26550E+01
   4.85318E+01  4.87971E+01  4.09925E+01  3.72452E+01  3.19833E+01  2.81692E+01  2.23523E+01  2.07209E+01  1.61731E+01  1.37545E+01
   1.35750E+01  1.22487E+01  6.96935E+00  1.31971E+01  5.49083E+00  7.88737E+00  1.09384E+01  9.15975E+00  5.39857E+00  7.26680E+00
   7.11646E+00  4.51514E+00  5.58304E+00  5.37428E+00  8.13869E+00  8.57792E+00  1.24279E+01  6.18468E+00  1.44176E+01  7.31657E+00
   1.01572E+01  8.35537E+00  9.77527E+00  7.74502E+00  1.00458E+01  1.22953E+01  1.12913E+01  1.32961E+01  1.45318E+01  1.32436E+01
   1.45297E+01  1.51908E+01  1.23595E+01  1.93424E+01  1.69617E+01  1.70010E+01  2.05293E+01  2.27890E+01  2.05972E+01  2.34339E+01
   2.49327E+01  2.93677E+01  3.00706E+01  2.81781E+01  2.90286E+01  3.42764E+01  3.19794E+01  2.95225E+01  3.35528E+01  3.52216E+01
   3.86065E+01  2.85357E+01  3.02986E+01  3.05314E+01  2.52760E+01  2.00290E+01  2.06551E+01  1.85936E+01  1.83279E+01  1.54299E+01
   1.38871E+01  1.42780E+01  1.25874E+01  1.31087E+01  1.31485E+01  7.48951E+00  1.22900E+01  8.27351E+00  8.70005E+00  1.17943E+01
   1.17549E+01  1.02989E+01  1.09889E+01  1.43683E+01  1.00856E+01  1.09323E+01  3.98447E+00  9.80837E+00  4.37993E+00  6.72295E+00
   7.16958E+00  7.19753E+00  8.06746E+00  6.13866E+00  4.20842E+00  4.32330E+00  7.89385E+00  5.69869E+00  8.18106E+00  1.07829E+01
   6.54797E+00  6.12000E+00  9.12068E+00  8.29929E+00  1.01059E+01  9.22999E+00  4.81090E+00  7.65134E+00  4.58511E+00  6.69182E+00
   1.01595E+01  8.92881E+00  8.01522E+00  8.56868E+00  9.41768E+00  1.00879E+01  9.55982E+00  5.97306E+00  1.03988E+01  7.61834E+00
   6.76846E+00  4.62538E+00  8.08320E+00  9.82524E+00  8.89980E+00  3.14577E+00  8.91032E+00  1.10475E+01  1.13434E+01  9.47335E+00
   8.88188E+00  1.08711E+01  1.15579E+01  9.29901E+00  1.49272E+01  1.37870E+01  1.40771E+01  8.03533E+00  9.44911E+00  1.65274E+01
   8.80016E+00  9.47465E+00  1.06004E+01  1.00731E+01  1.09012E+01  9.52622E+00  1.21468E+01  1.27722E+01  1.38581E+01  1.43776E+01
   1.12444E+01  8.86042E+00  1.23047E+01  8.71951E+00  1.47849E+01  1.04814E+01  6.43793E+00  7.40390E+00  5.41598E+00  5.74945E+00
   4.92199E+00  2.22052E+00  8.08028E+00  1.51985E+00  6.66783E+00  2.11609E+00  1.91813E+00  3.53063E+00  3.21251E+00  4.73819E+00
   6.01936E+00  7.12708E+00  3.90760E+00  8.78552E+00  7.74270E+00  4.28797E+00  4.27446E+00  4.98137E+00  2.55653E+00  3.77962E+00
   3.61085E+00  2.71835E+00  1.22185E+00  3.18046E+00  1.61578E+00  4.65973E-01  4.55166E+00  9.54967E+00  1.15909E+00 -2.01448E-02
   3.77832E+00  3.15100E+00  1.69741E+00  3.23138E+00  3.63668E+00  3.44933E+00  3.00001E-01  3.83921E+00  9.74616E-01  2.26703E+00
   5.59382E+00  5.98537E-01  3.73430E+00 -3.95389E+00  1.54447E+00  2.43777E+00  7.11374E-01  1.28940E+00  3.10893E+00  2.45658E+00
  -1.14615E+00  1.14173E+00  2.25566E+00  3.98901E+00  2.32062E+00  3.55298E+00  9.37399E-01 -6.26079E-03 -2.18875E+00  3.36869E+00
   1.23628E+00  2.80838E+00 -1.64819E+00  3.25599E+00  5.45790E-01  1.19893E+00  1.20310E-01  5.81475E-02  2.03911E+00  6.37256E-01
   2.41560E+00  5.41709E+00  3.35476E+00 -2.91099E+00  2.96315E+00 -4.12186E+00 -3.17691E+00  1.36082E+00
 NY points of the fit to the data follow
   1.16326E+01  1.30924E+01  1.41902E+01  1.59284E+01  1.66208E+01  1.82819E+01  1.78310E+01  1.90062E+01  1.74476E+01  1.80340E+01
   1.58685E+01  1.61727E+01  1.36542E+01  1.36543E+01  1.12443E+01  1.10519E+01  9.58389E+00  9.37054E+00  8.81903E+00  8.65331E+00
   8.91038E+00  8.51821E+00  9.43713E+00  8.47675E+00  1.03201E+01  8.92926E+00  1.15703E+01  1.00642E+01  1.28475E+01  1.12429E+01
   1.34728E+01  1.17486E+01  1.31838E+01  1.17367E+01  1.25392E+01  1.14041E+01  1.16460E+01  1.09296E+01  1.09575E+01  1.07870E+01
   1.08375E+01  1.11739E+01  1.12178E+01  1.16697E+01  1.13533E+01  1.15462E+01  1.08184E+01  1.06696E+01  9.74258E+00  9.31315E+00
   8.34076E+00  7.87542E+00  7.08847E+00  6.81545E+00  6.23276E+00  6.15905E+00  5.62204E+00  5.63559E+00  5.07492E+00  5.04211E+00
   4.47990E+00  4.43017E+00  3.91835E+00  3.99353E+00  3.64322E+00  3.91474E+00  3.70790E+00  3.98774E+00  3.83464E+00  3.97877E+00
   3.84690E+00  3.88968E+00  4.05569E+00  4.05017E+00  4.17335E+00  4.11175E+00  4.13938E+00  4.14039E+00  4.18566E+00  4.30259E+00
   4.36540E+00  4.53361E+00  4.48168E+00  4.55242E+00  4.16712E+00  4.12303E+00  3.57213E+00  3.94365E+00  5.35600E+00  6.38259E+00
   8.67872E+00  9.87946E+00  1.24333E+01  1.36835E+01  1.66712E+01  1.80902E+01  2.15695E+01  2.30269E+01  2.60685E+01  2.69824E+01
   2.80196E+01  2.79022E+01  2.66943E+01  2.56180E+01  2.28941E+01  2.12763E+01  1.80162E+01  1.63435E+01  1.33670E+01  1.19348E+01
   9.54700E+00  8.89737E+00  8.75607E+00  8.96461E+00  1.00260E+01  1.06242E+01  1.22739E+01  1.31873E+01  1.57617E+01  1.71686E+01
   2.09434E+01  2.23420E+01  2.58107E+01  2.63861E+01  2.80674E+01  2.75202E+01  2.72141E+01  2.57301E+01  2.40657E+01  2.19637E+01
   1.97864E+01  1.74439E+01  1.53909E+01  1.31572E+01  1.15289E+01  9.61380E+00  8.51736E+00  6.94429E+00  6.31680E+00  4.99626E+00
   4.60950E+00  3.48923E+00  3.31774E+00  2.48529E+00  2.64299E+00  2.03461E+00  2.06438E+00  1.47937E+00  1.42657E+00  9.02738E-01
   8.66718E-01  4.82058E-01  4.16489E-01  5.99997E-02 -7.15851E-02 -4.29808E-01 -5.95636E-01 -9.03893E-01 -1.05711E+00 -1.25496E+00
  -1.42713E+00 -1.57370E+00 -1.88310E+00 -2.02144E+00 -2.34353E+00 -2.50054E+00 -2.79640E+00 -3.06671E+00 -3.29771E+00 -3.62935E+00
  -3.75302E+00 -4.15365E+00 -4.17069E+00 -4.67374E+00 -4.46319E+00 -4.95077E+00 -4.46960E+00 -4.84551E+00 -4.15227E+00 -4.45309E+00
  -3.75213E+00 -3.95215E+00 -3.36221E+00 -3.43029E+00 -3.04322E+00 -2.83744E+00 -2.60683E+00 -2.02475E+00 -1.94318E+00 -1.07598E+00
  -1.24953E+00 -1.34412E-01 -5.63524E-01  7.34049E-01  1.31438E-01  1.39191E+00  5.09902E-01  1.80555E+00  9.96480E-01  2.07259E+00
   1.27916E+00  1.99626E+00  1.10564E+00  1.69255E+00  5.90075E-01  9.80119E-01  3.37162E-03  4.93466E-01  5.01395E-02  6.97078E-01
   7.14453E-01  1.79228E+00  2.14177E+00  3.25738E+00  3.47249E+00  4.02632E+00  3.82762E+00  3.67606E+00  3.24856E+00  2.85344E+00
   2.75819E+00  2.53795E+00  2.82359E+00  3.13641E+00  3.81327E+00  4.40367E+00  5.14726E+00  5.81818E+00  6.16436E+00  6.67977E+00
   6.66271E+00  7.18613E+00  7.14062E+00  7.87379E+00  7.94998E+00  8.73892E+00  8.78639E+00  9.32527E+00  9.16960E+00  9.41153E+00
   9.23779E+00  9.48786E+00  9.54298E+00  1.00978E+01  1.06324E+01  1.18145E+01  1.49880E+01  1.73104E+01  2.11676E+01  2.39414E+01
   2.75308E+01  3.04971E+01  3.39973E+01  3.71507E+01  4.06041E+01  4.38615E+01  4.61385E+01  4.88543E+01  4.81156E+01  4.95060E+01
   4.56996E+01  4.55920E+01  3.99468E+01  3.87438E+01  3.28640E+01  3.11613E+01  2.60510E+01  2.43037E+01  2.01812E+01  1.86115E+01
   1.54172E+01  1.41175E+01  1.17803E+01  1.07458E+01  9.04408E+00  8.23176E+00  7.20177E+00  6.68926E+00  6.47478E+00  6.28839E+00
   6.17990E+00  6.13924E+00  6.13287E+00  6.23229E+00  6.33399E+00  6.54480E+00  6.76477E+00  7.07840E+00  7.40321E+00  7.81636E+00
   8.24265E+00  8.75055E+00  9.27779E+00  9.87653E+00  1.04901E+01  1.11568E+01  1.18314E+01  1.25435E+01  1.32621E+01  1.40059E+01
   1.47589E+01  1.55385E+01  1.63352E+01  1.71667E+01  1.80281E+01  1.89351E+01  1.98865E+01  2.08958E+01  2.19639E+01  2.31042E+01
   2.43277E+01  2.56741E+01  2.72499E+01  2.91540E+01  3.03270E+01  3.17954E+01  3.23109E+01  3.30478E+01  3.28600E+01  3.27798E+01
   3.16115E+01  3.12538E+01  2.97593E+01  2.85367E+01  2.66198E+01  2.40751E+01  2.20784E+01  1.88205E+01  1.75034E+01  1.44552E+01
   1.45360E+01  1.21795E+01  1.36917E+01  1.17259E+01  1.37800E+01  1.17840E+01  1.36192E+01  1.15190E+01  1.27719E+01  1.07802E+01
   1.14804E+01  9.87615E+00  1.02436E+01  9.11683E+00  9.25257E+00  8.53918E+00  8.38681E+00  7.84992E+00  7.58034E+00  7.26007E+00
   6.94563E+00  6.86222E+00  6.58554E+00  6.78226E+00  6.71249E+00  6.96816E+00  6.96381E+00  7.18963E+00  7.20749E+00  7.37960E+00
   7.39928E+00  7.51619E+00  7.52738E+00  7.59243E+00  7.58509E+00  7.60154E+00  7.56072E+00  7.52746E+00  7.46152E+00  7.39292E+00
   7.31335E+00  7.23063E+00  7.15458E+00  7.08876E+00  7.03243E+00  6.99273E+00  6.97012E+00  6.97186E+00  6.99802E+00  7.05519E+00
   7.14256E+00  7.26566E+00  7.42249E+00  7.61727E+00  7.84656E+00  8.11304E+00  8.41162E+00  8.74322E+00  9.10092E+00  9.48379E+00
   9.88304E+00  1.02959E+01  1.07118E+01  1.11265E+01  1.15281E+01  1.19115E+01  1.22645E+01  1.25819E+01  1.28521E+01  1.30712E+01
   1.32294E+01  1.33251E+01  1.33514E+01  1.33098E+01  1.31967E+01  1.30171E+01  1.27709E+01  1.24663E+01  1.21058E+01  1.17002E+01
   1.12537E+01  1.07783E+01  1.02787E+01  9.76699E+00  9.24738E+00  8.73071E+00  8.21994E+00  7.72419E+00  7.24456E+00  6.78825E+00
   6.35443E+00  5.94846E+00  5.56786E+00  5.21649E+00  4.89062E+00  4.59304E+00  4.31919E+00  4.07123E+00  3.84418E+00  3.63995E+00
   3.45339E+00  3.28639E+00  3.13387E+00  2.99784E+00  2.87338E+00  2.76272E+00  2.66114E+00  2.57106E+00  2.48799E+00  2.41455E+00
   2.34644E+00  2.28647E+00  2.23048E+00  2.18143E+00  2.13529E+00  2.09515E+00  2.05707E+00  2.02424E+00  1.99280E+00  1.96601E+00
   1.94007E+00  1.91832E+00  1.89699E+00  1.87947E+00  1.86202E+00  1.84806E+00  1.83390E+00  1.82298E+00  1.81164E+00  1.80332E+00
   1.79440E+00  1.78833E+00  1.78150E+00  1.77739E+00  1.77240E+00  1.77000E+00  1.76660E+00  1.76572E+00  1.76374E+00  1.76420E+00
   1.76350E+00  1.76516E+00  1.76559E+00  1.76834E+00  1.76981E+00  1.77356E+00  1.77599E+00  1.78066E+00  1.78398E+00  1.78952E+00
   1.79368E+00  1.80005E+00  1.80502E+00  1.81219E+00  1.81796E+00  1.82593E+00  1.83252E+00  1.84131E+00  1.84873E+00  1.85839E+00
   1.86671E+00  1.87732E+00  1.88665E+00  1.89834E+00  1.90884E+00  1.92182E+00  1.93375E+00  1.94835E+00
 NY background values follow
    -2.674E+00   -2.664E+00   -2.654E+00   -2.644E+00   -2.634E+00   -2.624E+00   -2.614E+00   -2.604E+00   -2.594E+00   -2.584E+00
    -2.575E+00   -2.565E+00   -2.555E+00   -2.545E+00   -2.535E+00   -2.525E+00   -2.515E+00   -2.505E+00   -2.495E+00   -2.485E+00
    -2.475E+00   -2.465E+00   -2.455E+00   -2.446E+00   -2.436E+00   -2.426E+00   -2.416E+00   -2.406E+00   -2.396E+00   -2.386E+00
    -2.376E+00   -2.366E+00   -2.356E+00   -2.346E+00   -2.336E+00   -2.326E+00   -2.316E+00   -2.306E+00   -2.296E+00   -2.286E+00
    -2.276E+00   -2.267E+00   -2.257E+00   -2.247E+00   -2.237E+00   -2.227E+00   -2.217E+00   -2.207E+00   -2.197E+00   -2.187E+00
    -2.177E+00   -2.167E+00   -2.157E+00   -2.147E+00   -2.137E+00   -2.127E+00   -2.117E+00   -2.107E+00   -2.097E+00   -2.087E+00
    -2.077E+00   -2.067E+00   -2.057E+00   -2.047E+00   -2.037E+00   -2.027E+00   -2.017E+00   -2.007E+00   -1.997E+00   -1.987E+00
    -1.977E+00   -1.967E+00   -1.957E+00   -1.947E+00   -1.937E+00   -1.927E+00   -1.917E+00   -1.907E+00   -1.897E+00   -1.887E+00
    -1.877E+00   -1.867E+00   -1.857E+00   -1.847E+00   -1.837E+00   -1.827E+00   -1.817E+00   -1.807E+00   -1.797E+00   -1.787E+00
    -1.777E+00   -1.767E+00   -1.757E+00   -1.747E+00   -1.737E+00   -1.727E+00   -1.717E+00   -1.707E+00   -1.697E+00   -1.687E+00
    -1.677E+00   -1.667E+00   -1.657E+00   -1.647E+00   -1.637E+00   -1.627E+00   -1.617E+00   -1.607E+00   -1.597E+00   -1.587E+00
    -1.577E+00   -1.567E+00   -1.557E+00   -1.547E+00   -1.537E+00   -1.526E+00   -1.516E+00   -1.506E+00   -1.496E+00   -1.486E+00
    -1.476E+00   -1.466E+00   -1.456E+00   -1.446E+00   -1.436E+00   -1.426E+00   -1.416E+00   -1.406E+00   -1.396E+00   -1.386E+00
    -1.376E+00   -1.366E+00   -1.356E+00   -1.346E+00   -1.336E+00   -1.326E+00   -1.316E+00   -1.306E+00   -1.295E+00   -1.285E+00
    -1.275E+00   -1.265E+00   -1.255E+00   -1.245E+00   -1.235E+00   -1.225E+00   -1.215E+00   -1.205E+00   -1.195E+00   -1.185E+00
    -1.175E+00   -1.165E+00   -1.155E+00   -1.145E+00   -1.135E+00   -1.125E+00   -1.114E+00   -1.104E+00   -1.094E+00   -1.084E+00
    -1.074E+00   -1.064E+00   -1.054E+00   -1.044E+00   -1.034E+00   -1.024E+00   -1.014E+00   -1.004E+00   -9.937E-01   -9.836E-01
    -9.735E-01   -9.635E-01   -9.534E-01   -9.433E-01   -9.333E-01   -9.232E-01   -9.131E-01   -9.030E-01   -8.930E-01   -8.829E-01
    -8.728E-01   -8.628E-01   -8.527E-01   -8.426E-01   -8.325E-01   -8.225E-01   -8.124E-01   -8.023E-01   -7.922E-01   -7.822E-01
    -7.721E-01   -7.620E-01   -7.519E-01   -7.419E-01   -7.318E-01   -7.217E-01   -7.116E-01   -7.016E-01   -6.915E-01   -6.814E-01
    -6.713E-01   -6.612E-01   -6.512E-01   -6.411E-01   -6.310E-01   -6.209E-01   -6.109E-01   -6.008E-01   -5.907E-01   -5.806E-01
    -5.705E-01   -5.605E-01   -5.504E-01   -5.403E-01   -5.302E-01   -5.201E-01   -5.101E-01   -5.000E-01   -4.899E-01   -4.798E-01
    -4.697E-01   -4.597E-01   -4.496E-01   -4.395E-01   -4.294E-01   -4.193E-01   -4.093E-01   -3.992E-01   -3.891E-01   -3.790E-01
    -3.689E-01   -3.589E-01   -3.488E-01   -3.387E-01   -3.286E-01   -3.185E-01   -3.084E-01   -2.984E-01   -2.883E-01   -2.782E-01
    -2.681E-01   -2.580E-01   -2.480E-01   -2.379E-01   -2.278E-01   -2.177E-01   -2.076E-01   -1.976E-01   -1.875E-01   -1.774E-01
    -1.673E-01   -1.573E-01   -1.472E-01   -1.371E-01   -1.270E-01   -1.169E-01   -1.069E-01   -9.679E-02   -8.671E-02   -7.663E-02
    -6.655E-02   -5.648E-02   -4.640E-02   -3.633E-02   -2.625E-02   -1.617E-02   -6.099E-03    3.976E-03    1.405E-02    2.412E-02
     3.420E-02    4.427E-02    5.435E-02    6.442E-02    7.449E-02    8.456E-02    9.463E-02    1.047E-01    1.148E-01    1.248E-01
     1.349E-01    1.450E-01    1.551E-01    1.651E-01    1.752E-01    1.853E-01    1.953E-01    2.054E-01    2.155E-01    2.255E-01
     2.356E-01    2.457E-01    2.557E-01    2.658E-01    2.759E-01    2.859E-01    2.960E-01    3.060E-01    3.161E-01    3.262E-01
     3.362E-01    3.463E-01    3.563E-01    3.664E-01    3.765E-01    3.865E-01    3.966E-01    4.066E-01    4.167E-01    4.267E-01
     4.368E-01    4.469E-01    4.569E-01    4.670E-01    4.770E-01    4.871E-01    4.971E-01    5.072E-01    5.172E-01    5.273E-01
     5.373E-01    5.474E-01    5.574E-01    5.675E-01    5.775E-01    5.875E-01    5.976E-01    6.076E-01    6.177E-01    6.277E-01
     6.378E-01    6.478E-01    6.578E-01    6.679E-01    6.779E-01    6.879E-01    6.980E-01    7.080E-01    7.181E-01    7.281E-01
     7.381E-01    7.481E-01    7.582E-01    7.682E-01    7.782E-01    7.883E-01    7.983E-01    8.083E-01    8.183E-01    8.284E-01
     8.384E-01    8.484E-01    8.584E-01    8.685E-01    8.785E-01    8.885E-01    8.985E-01    9.085E-01    9.185E-01    9.286E-01
     9.386E-01    9.486E-01    9.586E-01    9.686E-01    9.786E-01    9.886E-01    9.986E-01    1.009E+00    1.019E+00    1.029E+00
     1.039E+00    1.049E+00    1.059E+00    1.069E+00    1.079E+00    1.089E+00    1.099E+00    1.109E+00    1.119E+00    1.129E+00
     1.139E+00    1.149E+00    1.159E+00    1.169E+00    1.179E+00    1.189E+00    1.199E+00    1.209E+00    1.219E+00    1.228E+00
     1.238E+00    1.248E+00    1.258E+00    1.268E+00    1.278E+00    1.288E+00    1.298E+00    1.308E+00    1.318E+00    1.328E+00
     1.338E+00    1.348E+00    1.358E+00    1.368E+00    1.378E+00    1.388E+00    1.398E+00    1.408E+00    1.418E+00    1.428E+00
     1.438E+00    1.448E+00    1.458E+00    1.468E+00    1.478E+00    1.488E+00    1.498E+00    1.507E+00    1.517E+00    1.527E+00
     1.537E+00    1.547E+00    1.557E+00    1.567E+00    1.577E+00    1.587E+00    1.597E+00    1.607E+00    1.617E+00    1.627E+00
     1.637E+00    1.647E+00    1.656E+00    1.666E+00    1.676E+00    1.686E+00    1.696E+00    1.706E+00    1.716E+00    1.726E+00
     1.736E+00    1.746E+00    1.756E+00    1.765E+00    1.775E+00    1.785E+00    1.795E+00    1.805E+00    1.815E+00    1.825E+00
     1.835E+00    1.845E+00    1.855E+00    1.864E+00    1.874E+00    1.884E+00    1.894E+00    1.904E+00    1.914E+00    1.924E+00
     1.934E+00    1.943E+00    1.953E+00    1.963E+00    1.973E+00    1.983E+00    1.993E+00    2.003E+00    2.013E+00    2.022E+00
     2.032E+00    2.042E+00    2.052E+00    2.062E+00    2.072E+00    2.082E+00    2.091E+00    2.101E+00    2.111E+00    2.121E+00
     2.131E+00    2.141E+00    2.150E+00    2.160E+00    2.170E+00    2.180E+00    2.190E+00    2.200E+00    2.209E+00    2.219E+00
     2.229E+00    2.239E+00    2.249E+00    2.258E+00    2.268E+00    2.278E+00    2.288E+00    2.298E+00
 Ala      Conc. = 1.79E+03
