 LCModel (Version 6.3-1L) Copyright: S.W. Provencher.          Ref.: Magn. Reson. Med. 30:672-679 (1993).                
 Slice#3 Row#8 Col#2  K_02_press_1_raw_act
 36 lines in following concentration table = NCONC+1
    Conc.  %SD /Cr+PCr  Metabolite                                         
    0.000 999%   0.000 Ala                                                 
    0.000 999%   0.000 Asp                                                 
  199.664  46%   0.507 Cr                                                  
  194.297  50%   0.493 PCr                                                 
   19.428 234% 4.9E-02 GABA                                                
   21.361 212% 5.4E-02 Glc                                                 
  194.365  52%   0.493 Gln                                                 
  429.205  27%   1.089 Glu                                                 
  105.442   9%   0.268 GPC                                                 
    0.000 999%   0.000 PCh                                                 
  154.747  23%   0.393 GSH                                                 
  413.573  32%   1.050 Ins                                                 
    0.000 999%   0.000 Lac                                                 
  648.099   8%   1.645 NAA                                                 
  203.231  26%   0.516 NAAG                                                
    2.629 415% 6.7E-03 Scyllo                                              
    0.000 999%   0.000 Tau                                                 
   66.049  77%   0.168 -CrCH2                                              
  105.442   9%   0.268 GPC+PCh                                             
  851.330   4%   2.161 NAA+NAAG                                            
  393.961   7%   1.000 Cr+PCr                                              
  623.570  26%   1.583 Glu+Gln                                             
  356.940  52%   0.906 Lip13a                                              
    0.000 999%   0.000 Lip13b                                              
    0.000 999%   0.000 Lip09                                               
   14.184 212% 3.6E-02 MM09                                                
   48.586 149%   0.123 Lip20                                               
    0.000 999%   0.000 MM20                                                
    4.115 379% 1.0E-02 MM12                                                
  109.240  52%   0.277 MM14                                                
   14.137 271% 3.6E-02 MM17                                                
  356.940  52%   0.906 Lip13a+Lip13b                                       
  470.294  41%   1.194 MM14+Lip13a+Lip13b+MM12                             
   14.184 212% 3.6E-02 MM09+Lip09                                          
   48.586 149%   0.123 MM20+Lip20                                          
   6 lines in following misc. output table
  FWHM = 0.054 ppm    S/N =   6                                            
  Data shift =-0.015 ppm                                                   
  Ph:  -6 deg     -12.1 deg/ppm                                            
  alphaB,S = 6.7E-01,   1.0E+02                                            
   14 spline knots.   Ns = 7(1)                                            
  ( 8) 4 infls.   ( 6) 1 extrs.                                            
  498 points on ppm-axis = NY
      4.000000     3.992357     3.984714     3.977070     3.969427     3.961784     3.954141     3.946497     3.938854     3.931211
      3.923568     3.915925     3.908281     3.900638     3.892995     3.885352     3.877708     3.870065     3.862422     3.854779
      3.847136     3.839492     3.831849     3.824206     3.816563     3.808919     3.801276     3.793633     3.785990     3.778347
      3.770703     3.763060     3.755417     3.747774     3.740130     3.732487     3.724844     3.717201     3.709558     3.701914
      3.694271     3.686628     3.678985     3.671341     3.663698     3.656055     3.648412     3.640769     3.633125     3.625482
      3.617839     3.610196     3.602552     3.594909     3.587266     3.579623     3.571980     3.564336     3.556693     3.549050
      3.541407     3.533763     3.526120     3.518477     3.510834     3.503191     3.495547     3.487904     3.480261     3.472618
      3.464974     3.457331     3.449688     3.442045     3.434402     3.426758     3.419115     3.411472     3.403829     3.396185
      3.388542     3.380899     3.373256     3.365613     3.357969     3.350326     3.342683     3.335040     3.327396     3.319753
      3.312110     3.304467     3.296824     3.289180     3.281537     3.273894     3.266251     3.258607     3.250964     3.243321
      3.235678     3.228034     3.220391     3.212748     3.205105     3.197462     3.189818     3.182175     3.174532     3.166889
      3.159245     3.151602     3.143959     3.136316     3.128673     3.121029     3.113386     3.105743     3.098100     3.090456
      3.082813     3.075170     3.067527     3.059884     3.052240     3.044597     3.036954     3.029311     3.021667     3.014024
      3.006381     2.998738     2.991095     2.983451     2.975808     2.968165     2.960522     2.952878     2.945235     2.937592
      2.929949     2.922306     2.914662     2.907019     2.899376     2.891733     2.884089     2.876446     2.868803     2.861160
      2.853517     2.845873     2.838230     2.830587     2.822944     2.815300     2.807657     2.800014     2.792371     2.784728
      2.777084     2.769441     2.761798     2.754155     2.746511     2.738868     2.731225     2.723582     2.715939     2.708295
      2.700652     2.693009     2.685366     2.677722     2.670079     2.662436     2.654793     2.647150     2.639506     2.631863
      2.624220     2.616577     2.608933     2.601290     2.593647     2.586004     2.578361     2.570717     2.563074     2.555431
      2.547788     2.540144     2.532501     2.524858     2.517215     2.509572     2.501928     2.494285     2.486642     2.478999
      2.471355     2.463712     2.456069     2.448426     2.440783     2.433139     2.425496     2.417853     2.410210     2.402566
      2.394923     2.387280     2.379637     2.371994     2.364350     2.356707     2.349064     2.341421     2.333777     2.326134
      2.318491     2.310848     2.303205     2.295561     2.287918     2.280275     2.272632     2.264988     2.257345     2.249702
      2.242059     2.234416     2.226772     2.219129     2.211486     2.203843     2.196199     2.188556     2.180913     2.173270
      2.165627     2.157983     2.150340     2.142697     2.135054     2.127410     2.119767     2.112124     2.104481     2.096838
      2.089194     2.081551     2.073908     2.066265     2.058621     2.050978     2.043335     2.035692     2.028049     2.020405
      2.012762     2.005119     1.997476     1.989833     1.982190     1.974546     1.966903     1.959260     1.951617     1.943974
      1.936331     1.928688     1.921045     1.913402     1.905759     1.898115     1.890472     1.882829     1.875186     1.867543
      1.859900     1.852257     1.844614     1.836971     1.829327     1.821684     1.814041     1.806398     1.798755     1.791112
      1.783469     1.775826     1.768183     1.760540     1.752896     1.745253     1.737610     1.729967     1.722324     1.714681
      1.707038     1.699395     1.691752     1.684108     1.676465     1.668822     1.661179     1.653536     1.645893     1.638250
      1.630607     1.622964     1.615321     1.607677     1.600034     1.592391     1.584748     1.577105     1.569462     1.561819
      1.554176     1.546533     1.538890     1.531246     1.523603     1.515960     1.508317     1.500674     1.493031     1.485388
      1.477745     1.470102     1.462458     1.454815     1.447172     1.439529     1.431886     1.424243     1.416600     1.408957
      1.401314     1.393671     1.386027     1.378384     1.370741     1.363098     1.355455     1.347812     1.340169     1.332526
      1.324883     1.317240     1.309596     1.301953     1.294310     1.286667     1.279024     1.271381     1.263738     1.256095
      1.248452     1.240808     1.233165     1.225522     1.217879     1.210236     1.202593     1.194950     1.187307     1.179664
      1.172021     1.164377     1.156734     1.149091     1.141448     1.133805     1.126162     1.118519     1.110876     1.103233
      1.095590     1.087946     1.080303     1.072660     1.065017     1.057374     1.049731     1.042088     1.034445     1.026802
      1.019158     1.011515     1.003872     0.996229     0.988586     0.980943     0.973300     0.965657     0.958014     0.950371
      0.942727     0.935084     0.927441     0.919798     0.912155     0.904512     0.896869     0.889226     0.881583     0.873940
      0.866296     0.858653     0.851010     0.843367     0.835724     0.828081     0.820438     0.812795     0.805152     0.797508
      0.789865     0.782222     0.774579     0.766936     0.759293     0.751650     0.744007     0.736364     0.728721     0.721077
      0.713434     0.705791     0.698148     0.690505     0.682862     0.675219     0.667576     0.659933     0.652290     0.644646
      0.637003     0.629360     0.621717     0.614074     0.606431     0.598788     0.591145     0.583502     0.575858     0.568215
      0.560572     0.552929     0.545286     0.537643     0.530000     0.522357     0.514714     0.507071     0.499427     0.491784
      0.484141     0.476498     0.468855     0.461212     0.453569     0.445925     0.438282     0.430639     0.422996     0.415353
      0.407710     0.400067     0.392424     0.384780     0.377137     0.369494     0.361851     0.354208     0.346565     0.338922
      0.331278     0.323635     0.315992     0.308349     0.300706     0.293063     0.285420     0.277777     0.270133     0.262490
      0.254847     0.247204     0.239561     0.231918     0.224275     0.216631     0.208988     0.201345
 NY phased data points follow
  -1.79467E+01 -1.65508E+01 -1.38022E+01 -1.34500E+01 -1.40349E+01 -1.21698E+01 -1.06745E+01 -7.34523E+00 -7.70814E+00 -5.79989E+00
  -4.02322E+00 -4.43151E+00 -5.70682E+00 -5.07002E+00 -6.37928E+00 -8.62683E+00 -8.00421E+00 -1.02101E+01 -8.70635E+00 -9.11953E+00
  -8.79618E+00 -8.21216E+00 -5.61982E+00 -6.67688E+00 -7.44676E+00 -5.65254E+00 -4.36349E+00 -4.68597E+00 -2.17143E+00 -3.68796E+00
  -3.23233E+00 -1.72692E+00 -1.12673E+00 -3.33048E+00 -3.40466E+00 -2.23791E+00 -6.39927E+00 -3.65948E+00 -1.60601E+00 -2.63420E-01
  -3.20851E+00 -1.72826E+00 -2.07596E+00  1.06072E+00 -2.28401E+00 -8.15758E-01  5.04661E-01  2.63524E+00  1.23581E+00  2.59525E+00
   7.14668E-02  3.08557E+00 -1.16959E+00 -1.73543E+00  1.07304E+00  8.71201E-01  1.85839E-01 -1.01616E+00  2.03084E+00  2.61619E+00
   3.30443E+00  1.77462E+00  3.41016E+00  2.66224E+00 -1.82975E+00  3.23494E-01 -5.80200E-01  9.20199E-01  2.19524E+00  1.59971E+00
   3.22014E+00  5.96460E+00  3.45261E+00  4.70415E+00  4.68791E+00  3.28304E+00  5.88442E+00  4.89936E+00  4.10198E+00  6.84449E+00
   6.46346E+00  5.41314E+00  7.37220E+00  5.17577E+00  5.92224E+00  8.72863E+00  8.11554E+00  7.26457E+00  5.27785E+00  6.52964E+00
   8.35276E+00  7.18860E+00  1.21048E+01  1.18603E+01  7.63565E+00  1.51954E+01  1.19156E+01  1.40275E+01  1.37527E+01  1.57823E+01
   1.55739E+01  1.63906E+01  1.92304E+01  2.33572E+01  2.33824E+01  2.32947E+01  2.34729E+01  1.86822E+01  1.68036E+01  1.20587E+01
   1.19445E+01  1.56725E+01  1.43758E+01  1.07538E+01  1.48218E+01  1.37014E+01  1.82958E+01  1.57192E+01  1.76939E+01  1.98244E+01
   2.03662E+01  2.09439E+01  2.02421E+01  2.58322E+01  2.77742E+01  2.80134E+01  3.17918E+01  3.41018E+01  3.16222E+01  3.39278E+01
   3.49187E+01  2.54334E+01  2.34459E+01  2.04695E+01  1.87572E+01  1.83254E+01  2.21872E+01  2.36278E+01  2.28699E+01  2.61021E+01
   2.42623E+01  2.35185E+01  2.25831E+01  2.50085E+01  2.59212E+01  2.42634E+01  2.36219E+01  2.55421E+01  2.87807E+01  2.71924E+01
   2.77156E+01  2.68898E+01  2.85837E+01  2.44852E+01  2.58441E+01  2.96721E+01  2.78687E+01  3.04612E+01  2.70537E+01  2.88859E+01
   2.40890E+01  2.86848E+01  2.76002E+01  2.92499E+01  2.68512E+01  2.52777E+01  2.67290E+01  2.65746E+01  2.81543E+01  2.88978E+01
   2.49793E+01  2.51850E+01  2.66411E+01  2.69765E+01  2.66000E+01  2.74371E+01  2.64239E+01  2.77292E+01  2.68580E+01  2.49952E+01
   2.64094E+01  2.75918E+01  2.71867E+01  2.73547E+01  2.78321E+01  2.80091E+01  2.96435E+01  2.97763E+01  3.03696E+01  2.70613E+01
   2.74072E+01  2.99782E+01  3.03906E+01  3.17280E+01  2.91376E+01  2.71760E+01  2.80486E+01  2.93186E+01  2.85584E+01  2.53328E+01
   2.57444E+01  2.65530E+01  2.73311E+01  2.48459E+01  2.71843E+01  2.70655E+01  2.38883E+01  2.44556E+01  2.36556E+01  2.31106E+01
   2.12706E+01  2.06238E+01  2.29881E+01  2.47891E+01  2.57137E+01  2.47228E+01  2.76773E+01  2.59047E+01  2.54147E+01  2.38225E+01
   2.30426E+01  2.12656E+01  2.15044E+01  1.95804E+01  1.92020E+01  2.13553E+01  1.85401E+01  1.97319E+01  2.17086E+01  2.36570E+01
   2.27467E+01  1.90562E+01  1.89573E+01  2.00608E+01  2.21842E+01  1.71067E+01  1.94915E+01  1.92260E+01  1.63718E+01  1.76146E+01
   1.70386E+01  1.94533E+01  1.78680E+01  1.89029E+01  1.76989E+01  1.84882E+01  1.87758E+01  1.66698E+01  2.09936E+01  1.92945E+01
   2.41421E+01  2.47886E+01  2.38878E+01  2.43839E+01  2.60870E+01  2.99602E+01  3.30562E+01  3.57369E+01  3.82420E+01  3.92899E+01
   3.87463E+01  3.84676E+01  4.11362E+01  3.90446E+01  3.40151E+01  2.33575E+01  1.88551E+01  1.72177E+01  1.90770E+01  1.83878E+01
   1.75955E+01  1.90536E+01  1.81619E+01  1.58718E+01  1.64224E+01  1.53869E+01  1.56423E+01  1.71668E+01  1.70595E+01  1.59843E+01
   1.76210E+01  1.58057E+01  1.49635E+01  1.65686E+01  1.59816E+01  1.53134E+01  1.52144E+01  1.69657E+01  1.31095E+01  1.69698E+01
   1.53493E+01  1.73597E+01  1.55362E+01  1.57358E+01  1.61547E+01  1.74730E+01  1.47915E+01  1.58209E+01  1.60141E+01  1.57019E+01
   1.71649E+01  1.80434E+01  1.89033E+01  1.90164E+01  1.42951E+01  1.87196E+01  1.72059E+01  1.94603E+01  1.94170E+01  1.99991E+01
   1.94715E+01  1.75162E+01  1.70493E+01  1.64503E+01  1.59732E+01  1.61608E+01  2.10562E+01  1.75159E+01  1.66756E+01  1.60651E+01
   1.74869E+01  1.66839E+01  1.81180E+01  1.86046E+01  1.67525E+01  1.80756E+01  1.67125E+01  1.84105E+01  1.80058E+01  2.02923E+01
   1.79981E+01  2.07160E+01  1.86478E+01  2.08055E+01  2.07064E+01  2.06613E+01  2.17157E+01  2.00133E+01  1.84964E+01  1.99419E+01
   1.62072E+01  1.60039E+01  1.83140E+01  1.78566E+01  1.91133E+01  2.00134E+01  1.66687E+01  1.82514E+01  1.88268E+01  1.76928E+01
   1.75608E+01  1.73203E+01  1.77786E+01  1.87484E+01  1.73316E+01  1.67735E+01  1.68735E+01  1.80628E+01  1.62153E+01  1.57598E+01
   1.53198E+01  1.41623E+01  1.71236E+01  1.74430E+01  1.60138E+01  1.83183E+01  1.46116E+01  1.88374E+01  1.63275E+01  1.73593E+01
   1.77371E+01  1.76201E+01  1.42120E+01  1.22802E+01  1.69020E+01  1.63245E+01  1.73727E+01  1.72475E+01  1.58650E+01  1.52871E+01
   1.53796E+01  1.28540E+01  1.52991E+01  1.32111E+01  1.40430E+01  1.57203E+01  1.17380E+01  1.24197E+01  1.33250E+01  1.29798E+01
   1.31864E+01  1.15775E+01  1.48458E+01  1.41374E+01  1.14028E+01  1.51217E+01  1.33996E+01  1.24644E+01  1.29038E+01  1.47106E+01
   1.49390E+01  1.23635E+01  1.24454E+01  1.23554E+01  1.26108E+01  1.37183E+01  1.28354E+01  1.31128E+01  1.26626E+01  1.53338E+01
   1.28425E+01  1.36367E+01  1.33877E+01  1.12258E+01  1.17558E+01  1.44006E+01  1.32831E+01  9.27547E+00  1.02259E+01  1.31978E+01
   1.18201E+01  9.15376E+00  1.45919E+01  1.28587E+01  1.02572E+01  8.99837E+00  1.15199E+01  1.08656E+01  1.40417E+01  1.13423E+01
   1.18909E+01  1.14335E+01  1.40765E+01  1.25138E+01  1.36631E+01  1.22128E+01  1.38773E+01  1.04657E+01  1.30291E+01  1.24510E+01
   1.31497E+01  1.37000E+01  1.17034E+01  1.14502E+01  9.50647E+00  1.13120E+01  1.04926E+01  1.17454E+01  1.21204E+01  9.44302E+00
   1.03466E+01  1.14577E+01  1.04421E+01  1.41410E+01  1.23222E+01  1.27080E+01  1.22203E+01  1.23428E+01  1.32474E+01  1.28155E+01
   1.13353E+01  1.22667E+01  1.14293E+01  8.56486E+00  1.09513E+01  9.81560E+00  1.23892E+01  1.31553E+01  1.06155E+01  1.25432E+01
   1.23926E+01  1.05063E+01  1.20313E+01  1.18246E+01  1.14070E+01  9.15706E+00  1.13842E+01  1.12556E+01  1.21189E+01  1.25113E+01
   1.03639E+01  1.17711E+01  1.09764E+01  1.33737E+01  1.18258E+01  8.21618E+00  7.36867E+00  1.07804E+01  1.23175E+01  1.24286E+01
   1.05063E+01  1.32370E+01  1.14473E+01  7.67977E+00  1.18882E+01  8.74477E+00  1.11306E+01  1.12516E+01
 NY points of the fit to the data follow
  -1.47751E+01 -1.45727E+01 -1.41492E+01 -1.34473E+01 -1.24547E+01 -1.12317E+01 -9.92199E+00 -8.60454E+00 -7.32387E+00 -6.13385E+00
  -5.13344E+00 -4.51525E+00 -4.50172E+00 -5.18502E+00 -6.41778E+00 -7.81886E+00 -8.91959E+00 -9.43378E+00 -9.41275E+00 -9.09575E+00
  -8.76598E+00 -8.52233E+00 -8.22541E+00 -7.75460E+00 -7.18174E+00 -6.54328E+00 -5.84300E+00 -5.06931E+00 -4.21464E+00 -3.34793E+00
  -2.58515E+00 -2.07193E+00 -1.96548E+00 -2.31222E+00 -2.94473E+00 -3.57432E+00 -3.99782E+00 -4.18371E+00 -4.24654E+00 -4.20037E+00
  -3.86235E+00 -3.21622E+00 -2.38186E+00 -1.50319E+00 -6.92056E-01  2.76597E-03  5.64008E-01  9.87270E-01  1.24971E+00  1.25543E+00
   8.97377E-01  2.32945E-01 -4.49386E-01 -8.00607E-01 -6.61618E-01 -1.63647E-01  4.23334E-01  9.49757E-01  1.40340E+00  1.79062E+00
   2.11017E+00  2.34796E+00  2.47875E+00  2.48719E+00  2.42134E+00  2.39872E+00  2.53022E+00  2.85545E+00  3.31616E+00  3.82200E+00
   4.29442E+00  4.68725E+00  4.99812E+00  5.24014E+00  5.42828E+00  5.57200E+00  5.68970E+00  5.82153E+00  5.99815E+00  6.21942E+00
   6.43627E+00  6.60424E+00  6.72569E+00  6.82170E+00  6.91094E+00  7.00277E+00  7.10350E+00  7.22612E+00  7.39056E+00  7.64227E+00
   8.02021E+00  8.52703E+00  9.11548E+00  9.70253E+00  1.02218E+01  1.07216E+01  1.15464E+01  1.28036E+01  1.42416E+01  1.57267E+01
   1.72289E+01  1.87997E+01  2.04521E+01  2.19922E+01  2.30180E+01  2.30221E+01  2.16650E+01  1.92061E+01  1.66036E+01  1.48922E+01
   1.44653E+01  1.49150E+01  1.54574E+01  1.58165E+01  1.61339E+01  1.64429E+01  1.67519E+01  1.70751E+01  1.74440E+01  1.80075E+01
   1.92006E+01  2.09705E+01  2.29820E+01  2.50571E+01  2.71218E+01  2.91965E+01  3.12545E+01  3.30082E+01  3.39296E+01  3.34226E+01
   3.11748E+01  2.77068E+01  2.43434E+01  2.22571E+01  2.17102E+01  2.20100E+01  2.22288E+01  2.22961E+01  2.24922E+01  2.29086E+01
   2.34979E+01  2.41160E+01  2.46044E+01  2.48925E+01  2.50029E+01  2.50031E+01  2.49900E+01  2.50273E+01  2.51218E+01  2.52597E+01
   2.54048E+01  2.55462E+01  2.56876E+01  2.58247E+01  2.59439E+01  2.60456E+01  2.61544E+01  2.62864E+01  2.64456E+01  2.65908E+01
   2.66593E+01  2.66412E+01  2.65801E+01  2.65536E+01  2.66295E+01  2.67998E+01  2.69761E+01  2.70419E+01  2.69341E+01  2.67030E+01
   2.64786E+01  2.63804E+01  2.64099E+01  2.64881E+01  2.65051E+01  2.64175E+01  2.62878E+01  2.62014E+01  2.62191E+01  2.63457E+01
   2.64918E+01  2.65598E+01  2.65430E+01  2.65145E+01  2.65943E+01  2.68454E+01  2.71946E+01  2.75098E+01  2.77544E+01  2.79597E+01
   2.81615E+01  2.83095E+01  2.82769E+01  2.79857E+01  2.74879E+01  2.69366E+01  2.65183E+01  2.63592E+01  2.64582E+01  2.67420E+01
   2.70993E+01  2.73968E+01  2.75314E+01  2.74171E+01  2.70562E+01  2.65167E+01  2.58284E+01  2.50231E+01  2.41864E+01  2.34684E+01
   2.30654E+01  2.30373E+01  2.33621E+01  2.39310E+01  2.45718E+01  2.50828E+01  2.52872E+01  2.51229E+01  2.46010E+01  2.37398E+01
   2.25953E+01  2.14055E+01  2.05161E+01  2.01247E+01  2.02080E+01  2.06433E+01  2.12869E+01  2.19975E+01  2.25147E+01  2.26246E+01
   2.23582E+01  2.19201E+01  2.15256E+01  2.12818E+01  2.11823E+01  2.11678E+01  2.11333E+01  2.09696E+01  2.06562E+01  2.02390E+01
   1.97728E+01  1.92945E+01  1.88619E+01  1.85555E+01  1.84398E+01  1.85340E+01  1.87895E+01  1.91425E+01  1.95952E+01  2.02166E+01
   2.08914E+01  2.16090E+01  2.24736E+01  2.39660E+01  2.66836E+01  3.00856E+01  3.34944E+01  3.63594E+01  3.83252E+01  3.94272E+01
   3.99769E+01  4.01278E+01  3.94336E+01  3.68978E+01  3.19359E+01  2.55977E+01  2.02290E+01  1.73815E+01  1.68870E+01  1.72587E+01
   1.73187E+01  1.72565E+01  1.72184E+01  1.72031E+01  1.71947E+01  1.71896E+01  1.71774E+01  1.71405E+01  1.70751E+01  1.69948E+01
   1.69225E+01  1.68786E+01  1.68659E+01  1.68677E+01  1.68714E+01  1.68781E+01  1.68853E+01  1.68865E+01  1.68812E+01  1.68757E+01
   1.68790E+01  1.68938E+01  1.69163E+01  1.69457E+01  1.69765E+01  1.69994E+01  1.70099E+01  1.70110E+01  1.70105E+01  1.70163E+01
   1.70308E+01  1.70532E+01  1.70837E+01  1.71197E+01  1.71560E+01  1.71882E+01  1.72148E+01  1.72379E+01  1.72602E+01  1.72820E+01
   1.73039E+01  1.73262E+01  1.73490E+01  1.73719E+01  1.73950E+01  1.74185E+01  1.74425E+01  1.74672E+01  1.74928E+01  1.75193E+01
   1.75468E+01  1.75753E+01  1.76047E+01  1.76347E+01  1.76652E+01  1.76960E+01  1.77268E+01  1.77575E+01  1.77876E+01  1.78168E+01
   1.78446E+01  1.78709E+01  1.78954E+01  1.79179E+01  1.79381E+01  1.79560E+01  1.79713E+01  1.79841E+01  1.79945E+01  1.80023E+01
   1.80077E+01  1.80104E+01  1.80105E+01  1.80080E+01  1.80027E+01  1.79944E+01  1.79827E+01  1.79672E+01  1.79475E+01  1.79231E+01
   1.78935E+01  1.78582E+01  1.78165E+01  1.77681E+01  1.77127E+01  1.76499E+01  1.75796E+01  1.75018E+01  1.74166E+01  1.73244E+01
   1.72255E+01  1.71205E+01  1.70100E+01  1.68948E+01  1.67757E+01  1.66535E+01  1.65292E+01  1.64035E+01  1.62771E+01  1.61508E+01
   1.60253E+01  1.59010E+01  1.57785E+01  1.56582E+01  1.55402E+01  1.54249E+01  1.53123E+01  1.52026E+01  1.50959E+01  1.49920E+01
   1.48910E+01  1.47928E+01  1.46973E+01  1.46046E+01  1.45144E+01  1.44268E+01  1.43415E+01  1.42586E+01  1.41781E+01  1.40997E+01
   1.40235E+01  1.39494E+01  1.38771E+01  1.38067E+01  1.37382E+01  1.36713E+01  1.36059E+01  1.35418E+01  1.34790E+01  1.34174E+01
   1.33568E+01  1.32971E+01  1.32382E+01  1.31800E+01  1.31226E+01  1.30659E+01  1.30101E+01  1.29551E+01  1.29011E+01  1.28479E+01
   1.27959E+01  1.27449E+01  1.26952E+01  1.26467E+01  1.25996E+01  1.25539E+01  1.25098E+01  1.24672E+01  1.24262E+01  1.23868E+01
   1.23490E+01  1.23127E+01  1.22781E+01  1.22449E+01  1.22131E+01  1.21827E+01  1.21535E+01  1.21256E+01  1.20989E+01  1.20733E+01
   1.20487E+01  1.20249E+01  1.20021E+01  1.19801E+01  1.19589E+01  1.19383E+01  1.19184E+01  1.18990E+01  1.18802E+01  1.18619E+01
   1.18440E+01  1.18264E+01  1.18092E+01  1.17923E+01  1.17757E+01  1.17593E+01  1.17430E+01  1.17268E+01  1.17107E+01  1.16946E+01
   1.16785E+01  1.16624E+01  1.16462E+01  1.16298E+01  1.16133E+01  1.15967E+01  1.15799E+01  1.15631E+01  1.15460E+01  1.15289E+01
   1.15116E+01  1.14942E+01  1.14767E+01  1.14590E+01  1.14412E+01  1.14232E+01  1.14052E+01  1.13870E+01  1.13687E+01  1.13503E+01
   1.13317E+01  1.13130E+01  1.12942E+01  1.12753E+01  1.12563E+01  1.12371E+01  1.12178E+01  1.11984E+01  1.11789E+01  1.11593E+01
   1.11396E+01  1.11197E+01  1.10998E+01  1.10797E+01  1.10595E+01  1.10393E+01  1.10189E+01  1.09984E+01  1.09778E+01  1.09571E+01
   1.09363E+01  1.09155E+01  1.08945E+01  1.08734E+01  1.08523E+01  1.08310E+01  1.08097E+01  1.07883E+01
 NY background values follow
    -1.582E+01   -1.553E+01   -1.524E+01   -1.495E+01   -1.466E+01   -1.437E+01   -1.408E+01   -1.379E+01   -1.350E+01   -1.322E+01
    -1.293E+01   -1.264E+01   -1.236E+01   -1.208E+01   -1.179E+01   -1.151E+01   -1.123E+01   -1.095E+01   -1.067E+01   -1.039E+01
    -1.011E+01   -9.834E+00   -9.557E+00   -9.281E+00   -9.005E+00   -8.730E+00   -8.456E+00   -8.183E+00   -7.911E+00   -7.639E+00
    -7.368E+00   -7.098E+00   -6.828E+00   -6.560E+00   -6.292E+00   -6.024E+00   -5.758E+00   -5.492E+00   -5.227E+00   -4.963E+00
    -4.699E+00   -4.437E+00   -4.174E+00   -3.913E+00   -3.653E+00   -3.393E+00   -3.134E+00   -2.875E+00   -2.617E+00   -2.360E+00
    -2.103E+00   -1.847E+00   -1.591E+00   -1.335E+00   -1.080E+00   -8.244E-01   -5.690E-01   -3.137E-01   -5.834E-02    1.972E-01
     4.529E-01    7.089E-01    9.652E-01    1.222E+00    1.479E+00    1.737E+00    1.995E+00    2.254E+00    2.514E+00    2.774E+00
     3.036E+00    3.298E+00    3.562E+00    3.826E+00    4.092E+00    4.359E+00    4.627E+00    4.896E+00    5.167E+00    5.439E+00
     5.713E+00    5.989E+00    6.266E+00    6.545E+00    6.826E+00    7.109E+00    7.393E+00    7.680E+00    7.969E+00    8.260E+00
     8.553E+00    8.849E+00    9.147E+00    9.446E+00    9.748E+00    1.005E+01    1.036E+01    1.066E+01    1.097E+01    1.128E+01
     1.159E+01    1.190E+01    1.222E+01    1.253E+01    1.284E+01    1.316E+01    1.347E+01    1.378E+01    1.410E+01    1.441E+01
     1.472E+01    1.504E+01    1.535E+01    1.566E+01    1.597E+01    1.628E+01    1.659E+01    1.689E+01    1.720E+01    1.750E+01
     1.780E+01    1.810E+01    1.840E+01    1.870E+01    1.899E+01    1.928E+01    1.957E+01    1.985E+01    2.013E+01    2.041E+01
     2.069E+01    2.096E+01    2.123E+01    2.149E+01    2.175E+01    2.201E+01    2.226E+01    2.251E+01    2.275E+01    2.299E+01
     2.323E+01    2.346E+01    2.369E+01    2.391E+01    2.412E+01    2.433E+01    2.454E+01    2.474E+01    2.494E+01    2.513E+01
     2.531E+01    2.549E+01    2.567E+01    2.583E+01    2.600E+01    2.615E+01    2.630E+01    2.645E+01    2.659E+01    2.672E+01
     2.684E+01    2.696E+01    2.708E+01    2.718E+01    2.728E+01    2.738E+01    2.746E+01    2.754E+01    2.761E+01    2.768E+01
     2.774E+01    2.779E+01    2.783E+01    2.787E+01    2.790E+01    2.792E+01    2.793E+01    2.794E+01    2.793E+01    2.792E+01
     2.790E+01    2.788E+01    2.784E+01    2.780E+01    2.775E+01    2.769E+01    2.762E+01    2.755E+01    2.747E+01    2.739E+01
     2.729E+01    2.719E+01    2.709E+01    2.698E+01    2.686E+01    2.674E+01    2.662E+01    2.649E+01    2.635E+01    2.621E+01
     2.607E+01    2.592E+01    2.577E+01    2.562E+01    2.546E+01    2.530E+01    2.514E+01    2.497E+01    2.480E+01    2.463E+01
     2.446E+01    2.429E+01    2.411E+01    2.394E+01    2.376E+01    2.358E+01    2.341E+01    2.323E+01    2.305E+01    2.287E+01
     2.270E+01    2.252E+01    2.234E+01    2.217E+01    2.200E+01    2.182E+01    2.166E+01    2.149E+01    2.132E+01    2.116E+01
     2.100E+01    2.084E+01    2.068E+01    2.053E+01    2.037E+01    2.022E+01    2.008E+01    1.993E+01    1.979E+01    1.965E+01
     1.951E+01    1.938E+01    1.924E+01    1.911E+01    1.899E+01    1.886E+01    1.874E+01    1.862E+01    1.851E+01    1.839E+01
     1.828E+01    1.817E+01    1.807E+01    1.797E+01    1.787E+01    1.778E+01    1.768E+01    1.760E+01    1.751E+01    1.743E+01
     1.735E+01    1.727E+01    1.720E+01    1.713E+01    1.706E+01    1.700E+01    1.694E+01    1.689E+01    1.684E+01    1.679E+01
     1.675E+01    1.671E+01    1.667E+01    1.664E+01    1.661E+01    1.658E+01    1.656E+01    1.654E+01    1.652E+01    1.651E+01
     1.649E+01    1.649E+01    1.648E+01    1.648E+01    1.648E+01    1.648E+01    1.648E+01    1.648E+01    1.649E+01    1.650E+01
     1.651E+01    1.652E+01    1.653E+01    1.655E+01    1.656E+01    1.658E+01    1.659E+01    1.661E+01    1.663E+01    1.665E+01
     1.667E+01    1.669E+01    1.671E+01    1.672E+01    1.674E+01    1.676E+01    1.678E+01    1.680E+01    1.681E+01    1.683E+01
     1.685E+01    1.686E+01    1.687E+01    1.689E+01    1.690E+01    1.691E+01    1.691E+01    1.692E+01    1.692E+01    1.693E+01
     1.693E+01    1.693E+01    1.692E+01    1.692E+01    1.691E+01    1.691E+01    1.690E+01    1.689E+01    1.687E+01    1.686E+01
     1.684E+01    1.683E+01    1.681E+01    1.679E+01    1.677E+01    1.674E+01    1.672E+01    1.669E+01    1.666E+01    1.663E+01
     1.660E+01    1.657E+01    1.654E+01    1.650E+01    1.646E+01    1.643E+01    1.639E+01    1.635E+01    1.630E+01    1.626E+01
     1.622E+01    1.617E+01    1.612E+01    1.607E+01    1.602E+01    1.597E+01    1.592E+01    1.587E+01    1.581E+01    1.576E+01
     1.570E+01    1.564E+01    1.558E+01    1.552E+01    1.546E+01    1.540E+01    1.533E+01    1.527E+01    1.520E+01    1.514E+01
     1.507E+01    1.501E+01    1.494E+01    1.487E+01    1.480E+01    1.473E+01    1.466E+01    1.459E+01    1.452E+01    1.445E+01
     1.438E+01    1.431E+01    1.424E+01    1.417E+01    1.410E+01    1.403E+01    1.396E+01    1.390E+01    1.383E+01    1.376E+01
     1.369E+01    1.363E+01    1.356E+01    1.349E+01    1.343E+01    1.337E+01    1.330E+01    1.324E+01    1.318E+01    1.312E+01
     1.306E+01    1.301E+01    1.295E+01    1.289E+01    1.284E+01    1.279E+01    1.274E+01    1.269E+01    1.264E+01    1.260E+01
     1.255E+01    1.251E+01    1.247E+01    1.243E+01    1.239E+01    1.236E+01    1.232E+01    1.229E+01    1.225E+01    1.222E+01
     1.219E+01    1.216E+01    1.213E+01    1.211E+01    1.208E+01    1.205E+01    1.203E+01    1.201E+01    1.198E+01    1.196E+01
     1.194E+01    1.192E+01    1.190E+01    1.188E+01    1.186E+01    1.184E+01    1.182E+01    1.181E+01    1.179E+01    1.177E+01
     1.176E+01    1.174E+01    1.172E+01    1.171E+01    1.169E+01    1.168E+01    1.166E+01    1.165E+01    1.163E+01    1.162E+01
     1.160E+01    1.159E+01    1.157E+01    1.156E+01    1.154E+01    1.153E+01    1.151E+01    1.150E+01    1.148E+01    1.146E+01
     1.145E+01    1.143E+01    1.141E+01    1.140E+01    1.138E+01    1.136E+01    1.135E+01    1.133E+01    1.131E+01    1.129E+01
     1.127E+01    1.126E+01    1.124E+01    1.122E+01    1.120E+01    1.118E+01    1.116E+01    1.115E+01    1.113E+01    1.111E+01
     1.109E+01    1.107E+01    1.105E+01    1.103E+01    1.101E+01    1.099E+01    1.097E+01    1.095E+01    1.093E+01    1.091E+01
     1.089E+01    1.087E+01    1.085E+01    1.083E+01    1.081E+01    1.079E+01    1.077E+01    1.075E+01
 Cr       Conc. = 2.00E+02
