 LCModel (Version 6.3-1L) Copyright: S.W. Provencher.          Ref.: Magn. Reson. Med. 30:672-679 (1993).                
 Slice#1 Row#5 Col#6  K_02_press_1_raw_act
 36 lines in following concentration table = NCONC+1
    Conc.  %SD /Cr+PCr  Metabolite                                         
    0.000 999%   0.000 Ala                                                 
    0.000 999%   0.000 Asp                                                 
 1.06E+03  17%   0.813 Cr                                                  
  243.471  74%   0.187 PCr                                                 
   12.071 999% 9.3E-03 GABA                                                
    0.000 999%   0.000 Glc                                                 
  276.443  99%   0.213 Gln                                                 
 1.61E+03  20%   1.240 Glu                                                 
  467.405   5%   0.360 GPC                                                 
    0.000 999%   0.000 PCh                                                 
  543.313  16%   0.418 GSH                                                 
 1.65E+03  17%   1.270 Ins                                                 
  461.124  32%   0.355 Lac                                                 
 1.67E+03   8%   1.288 NAA                                                 
  580.963  26%   0.447 NAAG                                                
    0.000 999%   0.000 Scyllo                                              
    0.000 999%   0.000 Tau                                                 
    0.000 999%   0.000 -CrCH2                                              
  467.405   5%   0.360 GPC+PCh                                             
 2.26E+03   4%   1.735 NAA+NAAG                                            
 1.30E+03   5%   1.000 Cr+PCr                                              
 1.89E+03  24%   1.453 Glu+Gln                                             
 5.76E+03  18%   4.429 Lip13a                                              
    0.000 999%   0.000 Lip13b                                              
 1.37E+03  33%   1.056 Lip09                                               
 1.39E+03  31%   1.070 MM09                                                
 1.32E+03  22%   1.019 Lip20                                               
 2.19E+03  23%   1.687 MM20                                                
  309.740 114%   0.238 MM12                                                
 2.15E+03  26%   1.657 MM14                                                
  929.604  19%   0.715 MM17                                                
 5.76E+03  18%   4.429 Lip13a+Lip13b                                       
 8.22E+03   8%   6.324 MM14+Lip13a+Lip13b+MM12                             
 2.76E+03  10%   2.126 MM09+Lip09                                          
 3.52E+03  13%   2.705 MM20+Lip20                                          
   6 lines in following misc. output table
  FWHM = 0.054 ppm    S/N =   9                                            
  Data shift =-0.008 ppm                                                   
  Ph:  45 deg      18.8 deg/ppm                                            
  alphaB,S = 1.6E+00,   9.6E+01                                            
   14 spline knots.   Ns = 7(1)                                            
  ( 9) 2 infls.   ( 3) 1 extrs.                                            
  498 points on ppm-axis = NY
      4.000000     3.992357     3.984714     3.977070     3.969427     3.961784     3.954141     3.946497     3.938854     3.931211
      3.923568     3.915925     3.908281     3.900638     3.892995     3.885352     3.877708     3.870065     3.862422     3.854779
      3.847136     3.839492     3.831849     3.824206     3.816563     3.808919     3.801276     3.793633     3.785990     3.778347
      3.770703     3.763060     3.755417     3.747774     3.740130     3.732487     3.724844     3.717201     3.709558     3.701914
      3.694271     3.686628     3.678985     3.671341     3.663698     3.656055     3.648412     3.640769     3.633125     3.625482
      3.617839     3.610196     3.602552     3.594909     3.587266     3.579623     3.571980     3.564336     3.556693     3.549050
      3.541407     3.533763     3.526120     3.518477     3.510834     3.503191     3.495547     3.487904     3.480261     3.472618
      3.464974     3.457331     3.449688     3.442045     3.434402     3.426758     3.419115     3.411472     3.403829     3.396185
      3.388542     3.380899     3.373256     3.365613     3.357969     3.350326     3.342683     3.335040     3.327396     3.319753
      3.312110     3.304467     3.296824     3.289180     3.281537     3.273894     3.266251     3.258607     3.250964     3.243321
      3.235678     3.228034     3.220391     3.212748     3.205105     3.197462     3.189818     3.182175     3.174532     3.166889
      3.159245     3.151602     3.143959     3.136316     3.128673     3.121029     3.113386     3.105743     3.098100     3.090456
      3.082813     3.075170     3.067527     3.059884     3.052240     3.044597     3.036954     3.029311     3.021667     3.014024
      3.006381     2.998738     2.991095     2.983451     2.975808     2.968165     2.960522     2.952878     2.945235     2.937592
      2.929949     2.922306     2.914662     2.907019     2.899376     2.891733     2.884089     2.876446     2.868803     2.861160
      2.853517     2.845873     2.838230     2.830587     2.822944     2.815300     2.807657     2.800014     2.792371     2.784728
      2.777084     2.769441     2.761798     2.754155     2.746511     2.738868     2.731225     2.723582     2.715939     2.708295
      2.700652     2.693009     2.685366     2.677722     2.670079     2.662436     2.654793     2.647150     2.639506     2.631863
      2.624220     2.616577     2.608933     2.601290     2.593647     2.586004     2.578361     2.570717     2.563074     2.555431
      2.547788     2.540144     2.532501     2.524858     2.517215     2.509572     2.501928     2.494285     2.486642     2.478999
      2.471355     2.463712     2.456069     2.448426     2.440783     2.433139     2.425496     2.417853     2.410210     2.402566
      2.394923     2.387280     2.379637     2.371994     2.364350     2.356707     2.349064     2.341421     2.333777     2.326134
      2.318491     2.310848     2.303205     2.295561     2.287918     2.280275     2.272632     2.264988     2.257345     2.249702
      2.242059     2.234416     2.226772     2.219129     2.211486     2.203843     2.196199     2.188556     2.180913     2.173270
      2.165627     2.157983     2.150340     2.142697     2.135054     2.127410     2.119767     2.112124     2.104481     2.096838
      2.089194     2.081551     2.073908     2.066265     2.058621     2.050978     2.043335     2.035692     2.028049     2.020405
      2.012762     2.005119     1.997476     1.989833     1.982190     1.974546     1.966903     1.959260     1.951617     1.943974
      1.936331     1.928688     1.921045     1.913402     1.905759     1.898115     1.890472     1.882829     1.875186     1.867543
      1.859900     1.852257     1.844614     1.836971     1.829327     1.821684     1.814041     1.806398     1.798755     1.791112
      1.783469     1.775826     1.768183     1.760540     1.752896     1.745253     1.737610     1.729967     1.722324     1.714681
      1.707038     1.699395     1.691752     1.684108     1.676465     1.668822     1.661179     1.653536     1.645893     1.638250
      1.630607     1.622964     1.615321     1.607677     1.600034     1.592391     1.584748     1.577105     1.569462     1.561819
      1.554176     1.546533     1.538890     1.531246     1.523603     1.515960     1.508317     1.500674     1.493031     1.485388
      1.477745     1.470102     1.462458     1.454815     1.447172     1.439529     1.431886     1.424243     1.416600     1.408957
      1.401314     1.393671     1.386027     1.378384     1.370741     1.363098     1.355455     1.347812     1.340169     1.332526
      1.324883     1.317240     1.309596     1.301953     1.294310     1.286667     1.279024     1.271381     1.263738     1.256095
      1.248452     1.240808     1.233165     1.225522     1.217879     1.210236     1.202593     1.194950     1.187307     1.179664
      1.172021     1.164377     1.156734     1.149091     1.141448     1.133805     1.126162     1.118519     1.110876     1.103233
      1.095590     1.087946     1.080303     1.072660     1.065017     1.057374     1.049731     1.042088     1.034445     1.026802
      1.019158     1.011515     1.003872     0.996229     0.988586     0.980943     0.973300     0.965657     0.958014     0.950371
      0.942727     0.935084     0.927441     0.919798     0.912155     0.904512     0.896869     0.889226     0.881583     0.873940
      0.866296     0.858653     0.851010     0.843367     0.835724     0.828081     0.820438     0.812795     0.805152     0.797508
      0.789865     0.782222     0.774579     0.766936     0.759293     0.751650     0.744007     0.736364     0.728721     0.721077
      0.713434     0.705791     0.698148     0.690505     0.682862     0.675219     0.667576     0.659933     0.652290     0.644646
      0.637003     0.629360     0.621717     0.614074     0.606431     0.598788     0.591145     0.583502     0.575858     0.568215
      0.560572     0.552929     0.545286     0.537643     0.530000     0.522357     0.514714     0.507071     0.499427     0.491784
      0.484141     0.476498     0.468855     0.461212     0.453569     0.445925     0.438282     0.430639     0.422996     0.415353
      0.407710     0.400067     0.392424     0.384780     0.377137     0.369494     0.361851     0.354208     0.346565     0.338922
      0.331278     0.323635     0.315992     0.308349     0.300706     0.293063     0.285420     0.277777     0.270133     0.262490
      0.254847     0.247204     0.239561     0.231918     0.224275     0.216631     0.208988     0.201345
 NY phased data points follow
   4.55173E+01  5.36270E+01  5.73137E+01  5.59879E+01  4.80933E+01  5.63356E+01  5.52998E+01  5.44467E+01  5.87691E+01  6.54415E+01
   6.47266E+01  7.15302E+01  6.88808E+01  7.25489E+01  6.80859E+01  5.87474E+01  5.70317E+01  5.96183E+01  4.69760E+01  4.62758E+01
   5.02203E+01  4.44918E+01  4.12607E+01  4.30673E+01  4.27952E+01  4.27973E+01  4.42666E+01  4.63369E+01  4.80538E+01  4.41554E+01
   4.83379E+01  5.05634E+01  4.87954E+01  4.63851E+01  4.46407E+01  4.34478E+01  4.10733E+01  4.27061E+01  4.05182E+01  4.33949E+01
   4.14452E+01  4.45934E+01  4.09056E+01  3.89328E+01  4.28841E+01  4.49533E+01  4.72258E+01  4.89056E+01  4.53556E+01  4.27851E+01
   4.24290E+01  4.23235E+01  3.69424E+01  3.45930E+01  4.27379E+01  3.88556E+01  3.67071E+01  3.68955E+01  3.86156E+01  3.18530E+01
   2.70044E+01  3.60024E+01  2.98332E+01  2.56487E+01  2.39812E+01  2.68847E+01  2.61502E+01  2.49441E+01  2.79834E+01  2.02618E+01
   2.55733E+01  2.60849E+01  2.43146E+01  2.31854E+01  2.31499E+01  2.19157E+01  2.32023E+01  2.36229E+01  2.38105E+01  2.76431E+01
   1.87234E+01  1.58139E+01  1.47045E+01  2.11802E+01  1.66185E+01  1.98730E+01  2.26541E+01  1.71120E+01  1.93444E+01  1.51700E+01
   2.20284E+01  1.58053E+01  1.43346E+01  1.76875E+01  1.90075E+01  1.90775E+01  1.87194E+01  2.39508E+01  2.15625E+01  2.86724E+01
   3.55763E+01  4.50514E+01  5.00279E+01  5.71107E+01  6.10840E+01  5.76730E+01  5.32187E+01  3.62980E+01  3.44646E+01  3.26894E+01
   2.01463E+01  1.88305E+01  1.68050E+01  1.92135E+01  1.14120E+01  1.46554E+01  1.88392E+01  1.54311E+01  2.10961E+01  1.29461E+01
   1.67813E+01  2.11909E+01  2.07675E+01  3.18172E+01  2.90398E+01  3.91141E+01  4.44442E+01  4.97859E+01  5.03768E+01  5.67740E+01
   4.93302E+01  3.89050E+01  3.23496E+01  2.95916E+01  2.08725E+01  1.63887E+01  1.85544E+01  1.26316E+01  1.20088E+01  1.60564E+01
   9.54381E+00  1.53046E+01  1.34731E+01  1.48029E+01  1.31558E+01  1.08858E+01  1.00468E+01  1.95276E+01  1.17409E+01  6.96375E+00
   8.98151E+00  9.75106E+00  1.25287E+01  1.05495E+01  8.46709E+00  5.63986E+00  7.88172E+00  1.79647E+01  1.36160E+01  1.36078E+01
   7.43513E+00  1.08905E+01  6.56953E+00  6.87527E+00  2.34432E+00  9.15767E+00  6.54705E+00  7.44105E+00  9.49642E+00  1.59251E+00
  -2.90446E-02 -6.66330E+00 -4.69472E+00 -7.37017E+00 -8.59687E-01 -1.25757E+01 -2.25451E+00 -8.22133E+00 -7.30921E+00 -9.14770E+00
  -3.02474E+00 -7.07453E+00 -8.32955E+00 -1.24592E+01 -5.93298E+00  3.90261E-02 -5.15317E+00  4.10883E+00 -3.82502E+00  3.20056E-01
  -4.06370E+00 -1.64155E+00  3.46155E+00  4.22952E-01 -4.58892E+00  5.89702E-01 -1.19349E+00 -4.49160E+00 -1.69611E+00 -6.07140E+00
  -5.68891E+00 -4.81732E-01  5.24510E+00  2.63672E+00  3.62101E+00  2.22588E+00  5.59765E+00 -5.12986E-01  6.88398E-01 -3.62534E-01
  -4.48604E+00  7.90146E+00  4.74243E+00  5.66773E+00  3.77389E+00  9.38576E+00  9.19337E+00  1.13840E+01  4.15060E+00  5.12866E+00
   1.72189E+00 -3.55515E+00 -7.92178E+00 -5.11791E+00 -2.53041E+00  3.86742E+00  2.90365E+00 -4.82323E-01  1.27736E+01  4.97998E+00
   3.89509E+00  7.19719E+00  1.44266E+00  9.25685E+00  2.67549E+00  7.76344E+00  2.08677E+00  3.34087E+00  1.63515E-01  4.51997E+00
   2.97012E+00  1.15861E+00 -1.19690E+00 -2.01016E+00 -1.05298E+00  7.35066E+00  1.21133E+01  6.44102E+00  8.41741E+00  1.22063E+01
   1.78672E+01  1.73083E+01  1.70953E+01  2.50874E+01  3.07971E+01  3.73643E+01  4.89947E+01  5.28137E+01  6.44688E+01  7.01386E+01
   7.11383E+01  6.57167E+01  6.12238E+01  4.41127E+01  3.13608E+01  8.49325E+00  1.03280E+01  5.00711E+00 -6.09129E+00  1.06998E+00
  -4.20823E+00 -1.49736E+00 -5.63093E+00  3.54597E+00  3.80930E+00  1.92410E+00 -2.12957E+00 -2.72192E+00 -3.90423E+00 -7.90093E+00
  -5.42104E+00 -6.85812E+00 -9.49778E+00 -4.19134E+00 -1.25725E+01 -7.80293E+00 -1.38917E+01 -1.61577E+01 -7.71251E+00 -6.84183E+00
  -3.79683E+00 -7.38009E+00 -8.12767E+00 -6.49673E+00 -1.80278E+00 -5.30987E+00 -6.56373E+00 -8.14205E+00 -5.61535E+00  1.92833E+00
  -1.36702E+00  3.88236E+00  4.06661E+00  1.66452E+00  2.60246E+00  8.57071E-01  1.87429E+00  9.21872E-01 -1.79264E+00  3.68096E+00
   3.41308E+00 -2.63191E-01 -4.77313E+00 -9.36689E-01 -4.13643E+00 -3.05791E+00 -3.30321E+00 -3.32064E+00 -6.57915E+00 -8.43696E+00
  -2.13965E+00 -4.41905E+00 -2.99895E+00  8.33801E-01  4.52532E-01  4.84503E+00  3.38946E+00  3.84544E+00  9.64611E+00  5.90442E+00
   1.58744E+00  6.47075E+00  8.78825E+00  8.31968E+00  7.26229E+00  5.35526E+00 -2.12379E-01  1.19696E+01  8.49651E-01  1.31444E+01
   1.31893E+01  1.45008E+01  1.22161E+01  2.17612E+01  2.27393E+01  2.59677E+01  2.62227E+01  2.52517E+01  1.81939E+01  2.17166E+01
   1.99748E+01  1.58207E+01  9.01014E+00  1.16241E+01  1.17032E+01  1.36624E+01  7.87241E+00  1.07689E+01  1.20684E+01  1.26815E+01
   1.32563E+01  1.32397E+01  1.25008E+01  1.24999E+01  1.00654E+01  8.18393E+00  8.28497E+00  5.82587E+00  7.28217E+00  6.38132E+00
  -8.42779E-01  4.15024E+00  4.43675E+00  7.33480E+00  6.40602E+00  5.22511E+00  1.10603E+00  3.84880E-02  2.40093E+00 -1.13971E+00
   5.56238E+00  1.67439E+00  2.64204E+00  5.30451E+00 -1.27694E+00  7.61877E+00  5.18916E+00  7.37419E-02  3.50577E+00  6.89493E+00
   6.99782E-01  8.48248E+00  2.68178E+00  2.05745E+00  1.14633E+01  6.37943E+00  6.83653E+00  6.43965E+00  5.84432E+00  6.87519E+00
   1.16218E+01  5.76575E+00  8.46323E+00  6.37951E+00  7.42336E+00  3.07564E+00  1.04462E+01  5.75261E+00  5.51802E+00  7.08175E+00
   4.02715E+00  4.57634E+00  2.56418E+00  4.77145E+00  1.52802E+00  3.31811E+00 -3.17110E+00 -4.68936E+00 -4.26962E+00 -3.35681E+00
  -6.01378E+00 -6.36359E+00 -9.27535E+00 -5.43990E+00 -8.62940E+00 -5.69892E+00 -6.14987E+00 -7.14164E+00 -6.68038E+00 -1.28292E+00
  -1.05555E+01 -3.39408E+00 -4.47672E+00 -9.06556E+00 -9.32640E+00 -6.36974E+00 -8.41433E+00 -1.05010E+01 -9.73936E+00 -7.64069E+00
  -6.67066E+00 -1.02055E+01 -9.06281E+00 -8.30448E+00 -8.57508E+00 -5.12151E+00 -9.13717E+00 -5.02779E+00 -6.59513E+00 -8.90605E+00
  -1.11535E+01 -1.21691E+01 -6.93778E+00 -9.17272E+00 -9.69029E+00 -7.73802E+00 -7.79538E+00 -9.26786E+00 -4.80599E+00 -1.03041E+01
  -1.41203E+01 -1.29314E+01 -3.10382E+00 -9.71656E+00 -5.47756E+00 -1.08035E+01 -8.67807E+00 -8.09922E+00 -1.14728E+01 -6.17827E+00
  -1.05254E+01 -1.10145E+01 -7.85050E+00 -9.74864E+00 -4.93917E+00 -7.88375E+00 -4.21570E+00 -4.37565E+00 -6.94701E+00 -6.46957E+00
  -8.92195E+00 -6.79830E+00 -6.65565E+00 -1.08784E+01 -1.03999E+01 -7.99036E+00 -1.18319E+01 -5.28214E+00 -1.37934E+01 -1.54371E+01
  -6.88909E+00 -9.67644E+00 -6.63719E+00 -1.33727E+01 -8.34992E+00 -5.15430E+00 -5.23610E+00 -6.36563E+00
 NY points of the fit to the data follow
   4.75639E+01  4.67254E+01  4.66051E+01  4.69657E+01  4.78712E+01  4.98752E+01  5.27446E+01  5.59744E+01  5.94695E+01  6.31212E+01
   6.65175E+01  6.90007E+01  6.99200E+01  6.88741E+01  6.57976E+01  6.12073E+01  5.62096E+01  5.18169E+01  4.84583E+01  4.59058E+01
   4.39458E+01  4.26690E+01  4.20016E+01  4.19236E+01  4.21432E+01  4.26171E+01  4.35619E+01  4.50753E+01  4.69920E+01  4.89706E+01
   5.06433E+01  5.14907E+01  5.10149E+01  4.92896E+01  4.68048E+01  4.40458E+01  4.13743E+01  3.90085E+01  3.72300E+01  3.63905E+01
   3.64794E+01  3.72873E+01  3.84798E+01  3.98782E+01  4.14739E+01  4.31110E+01  4.44910E+01  4.51692E+01  4.47528E+01  4.31374E+01
   4.05014E+01  3.74670E+01  3.48545E+01  3.30612E+01  3.19981E+01  3.15455E+01  3.16716E+01  3.21958E+01  3.27756E+01  3.31546E+01
   3.32152E+01  3.28309E+01  3.19801E+01  3.07951E+01  2.95800E+01  2.86545E+01  2.81225E+01  2.79624E+01  2.81125E+01  2.84333E+01
   2.87586E+01  2.89537E+01  2.89229E+01  2.86389E+01  2.81194E+01  2.74449E+01  2.67460E+01  2.61091E+01  2.55569E+01  2.50238E+01
   2.44413E+01  2.37924E+01  2.30427E+01  2.21792E+01  2.11925E+01  2.01102E+01  1.90266E+01  1.80960E+01  1.74805E+01  1.73297E+01
   1.76426E+01  1.82713E+01  1.90221E+01  1.97273E+01  2.02890E+01  2.07650E+01  2.19389E+01  2.46002E+01  2.79101E+01  3.19736E+01
   3.73660E+01  4.40609E+01  5.11121E+01  5.68802E+01  5.95671E+01  5.79159E+01  5.19194E+01  4.33485E+01  3.47976E+01  2.78373E+01
   2.26492E+01  1.88439E+01  1.65356E+01  1.57630E+01  1.54867E+01  1.53184E+01  1.51941E+01  1.51199E+01  1.51491E+01  1.54746E+01
   1.66258E+01  1.92617E+01  2.29776E+01  2.74587E+01  3.29406E+01  3.93783E+01  4.60738E+01  5.16958E+01  5.46466E+01  5.37964E+01
   4.90551E+01  4.16584E+01  3.36751E+01  2.66113E+01  2.08725E+01  1.63318E+01  1.30807E+01  1.14427E+01  1.09951E+01  1.12172E+01
   1.17983E+01  1.24436E+01  1.29380E+01  1.31389E+01  1.29879E+01  1.25861E+01  1.20791E+01  1.15442E+01  1.10327E+01  1.05753E+01
   1.01729E+01  9.81756E+00  9.48872E+00  9.15374E+00  8.79915E+00  8.48800E+00  8.23362E+00  8.01233E+00  7.76029E+00  7.36931E+00
   6.86940E+00  6.36659E+00  5.94723E+00  5.61258E+00  5.29043E+00  4.87716E+00  4.29223E+00  3.56413E+00  2.79317E+00  2.03873E+00
   1.39431E+00  8.89144E-01  4.43183E-01 -8.07944E-03 -4.99602E-01 -9.81363E-01 -1.36110E+00 -1.56884E+00 -1.66288E+00 -1.77896E+00
  -2.00378E+00 -2.23307E+00 -2.34681E+00 -2.25218E+00 -1.94137E+00 -1.44781E+00 -7.44364E-01  1.82363E-01  1.31643E+00  2.51120E+00
   3.44968E+00  3.85422E+00  3.70331E+00  3.08094E+00  2.09980E+00  9.77372E-01  3.05617E-02 -4.76517E-01 -4.59338E-01  8.05226E-02
   1.00576E+00  2.07733E+00  2.96208E+00  3.34164E+00  3.17944E+00  2.48281E+00  1.24334E+00 -3.16185E-01 -1.79661E+00 -2.72298E+00
  -2.97264E+00 -2.49218E+00 -1.17894E+00  8.03799E-01  2.95174E+00  4.56418E+00  5.07317E+00  4.30482E+00  2.33385E+00 -5.29547E-01
  -3.47282E+00 -5.72298E+00 -6.79308E+00 -6.43995E+00 -4.78304E+00 -2.16544E+00  6.63425E-01  2.94953E+00  4.37052E+00  4.99069E+00
   5.08341E+00  4.87039E+00  4.58176E+00  4.52439E+00  4.82009E+00  5.25187E+00  5.47519E+00  5.33064E+00  4.81809E+00  4.00542E+00
   3.01513E+00  2.20070E+00  1.93591E+00  2.36218E+00  3.40711E+00  4.86148E+00  6.46842E+00  7.89926E+00  9.09068E+00  1.05324E+01
   1.22667E+01  1.43142E+01  1.75472E+01  2.36466E+01  3.15446E+01  3.99047E+01  4.83966E+01  5.66382E+01  6.36522E+01  6.82008E+01
   6.92079E+01  6.56893E+01  5.72169E+01  4.50427E+01  3.22237E+01  2.14616E+01  1.32664E+01  6.97206E+00  2.42803E+00  1.27366E-01
  -9.88285E-01 -1.74475E+00 -2.28484E+00 -2.66985E+00 -2.99632E+00 -3.34174E+00 -3.72991E+00 -4.16908E+00 -4.63049E+00 -5.05911E+00
  -5.41636E+00 -5.69519E+00 -5.89538E+00 -6.02016E+00 -6.08818E+00 -6.12141E+00 -6.13871E+00 -6.13427E+00 -6.08621E+00 -5.97604E+00
  -5.79056E+00 -5.51951E+00 -5.16484E+00 -4.73727E+00 -4.25970E+00 -3.75392E+00 -3.23458E+00 -2.71005E+00 -2.18656E+00 -1.67264E+00
  -1.17842E+00 -7.11866E-01 -2.89899E-01  6.43370E-02  3.30654E-01  4.96901E-01  5.59403E-01  5.20316E-01  3.85821E-01  1.70256E-01
  -1.08121E-01 -4.29667E-01 -7.72801E-01 -1.11584E+00 -1.43787E+00 -1.71916E+00 -1.94179E+00 -2.09035E+00 -2.15274E+00 -2.12035E+00
  -1.98792E+00 -1.75304E+00 -1.41582E+00 -9.78816E-01 -4.46658E-01  1.74262E-01  8.76250E-01  1.65073E+00  2.48845E+00  3.37959E+00
   4.31378E+00  5.28053E+00  6.26957E+00  7.27132E+00  8.27702E+00  9.27915E+00  1.02721E+01  1.12533E+01  1.22264E+01  1.32068E+01
   1.42423E+01  1.54185E+01  1.65811E+01  1.75710E+01  1.84247E+01  1.90997E+01  1.94185E+01  1.91424E+01  1.81245E+01  1.65753E+01
   1.47365E+01  1.29394E+01  1.16937E+01  1.13364E+01  1.18512E+01  1.29898E+01  1.44336E+01  1.58351E+01  1.66829E+01  1.66599E+01
   1.59190E+01  1.47840E+01  1.35032E+01  1.21671E+01  1.08195E+01  9.61574E+00  8.56924E+00  7.60904E+00  6.70905E+00  5.86171E+00
   5.06606E+00  4.32402E+00  3.63887E+00  3.01451E+00  2.45492E+00  1.96388E+00  1.54483E+00  1.20091E+00  9.34977E-01  7.49499E-01
   6.46358E-01  6.26722E-01  6.90956E-01  8.38567E-01  1.06803E+00  1.37652E+00  1.75958E+00  2.21100E+00  2.72275E+00  3.28498E+00
   3.88596E+00  4.51214E+00  5.14830E+00  5.77799E+00  6.38402E+00  6.94907E+00  7.45620E+00  7.88946E+00  8.23451E+00  8.47929E+00
   8.61460E+00  8.63444E+00  8.53617E+00  8.32052E+00  7.99147E+00  7.55615E+00  7.02439E+00  6.40818E+00  5.72100E+00  4.97720E+00
   4.19149E+00  3.37838E+00  2.55177E+00  1.72440E+00  9.07532E-01  1.10775E-01 -6.57920E-01 -1.39224E+00 -2.08751E+00 -2.74061E+00
  -3.34984E+00 -3.91468E+00 -4.43551E+00 -4.91344E+00 -5.35017E+00 -5.74788E+00 -6.10907E+00 -6.43639E+00 -6.73243E+00 -6.99977E+00
  -7.24093E+00 -7.45834E+00 -7.65434E+00 -7.83102E+00 -7.99024E+00 -8.13370E+00 -8.26299E+00 -8.37959E+00 -8.48481E+00 -8.57975E+00
  -8.66537E+00 -8.74255E+00 -8.81213E+00 -8.87487E+00 -8.93141E+00 -8.98229E+00 -9.02795E+00 -9.06885E+00 -9.10544E+00 -9.13813E+00
  -9.16722E+00 -9.19294E+00 -9.21554E+00 -9.23526E+00 -9.25239E+00 -9.26711E+00 -9.27958E+00 -9.28988E+00 -9.29818E+00 -9.30465E+00
  -9.30946E+00 -9.31269E+00 -9.31442E+00 -9.31468E+00 -9.31360E+00 -9.31131E+00 -9.30789E+00 -9.30338E+00 -9.29780E+00 -9.29120E+00
  -9.28367E+00 -9.27531E+00 -9.26615E+00 -9.25620E+00 -9.24545E+00 -9.23397E+00 -9.22183E+00 -9.20911E+00 -9.19579E+00 -9.18188E+00
  -9.16738E+00 -9.15235E+00 -9.13686E+00 -9.12094E+00 -9.10456E+00 -9.08772E+00 -9.07043E+00 -9.05276E+00 -9.03476E+00 -9.01642E+00
  -8.99772E+00 -8.97864E+00 -8.95923E+00 -8.93954E+00 -8.91959E+00 -8.89936E+00 -8.87880E+00 -8.85792E+00
 NY background values follow
     4.247E+01    4.220E+01    4.193E+01    4.167E+01    4.140E+01    4.113E+01    4.086E+01    4.059E+01    4.032E+01    4.005E+01
     3.978E+01    3.951E+01    3.924E+01    3.897E+01    3.870E+01    3.843E+01    3.816E+01    3.789E+01    3.762E+01    3.735E+01
     3.708E+01    3.681E+01    3.654E+01    3.627E+01    3.601E+01    3.574E+01    3.547E+01    3.520E+01    3.493E+01    3.466E+01
     3.440E+01    3.413E+01    3.386E+01    3.359E+01    3.333E+01    3.306E+01    3.279E+01    3.253E+01    3.226E+01    3.199E+01
     3.173E+01    3.146E+01    3.120E+01    3.093E+01    3.067E+01    3.040E+01    3.014E+01    2.988E+01    2.961E+01    2.935E+01
     2.909E+01    2.882E+01    2.856E+01    2.830E+01    2.804E+01    2.778E+01    2.752E+01    2.725E+01    2.699E+01    2.674E+01
     2.648E+01    2.622E+01    2.596E+01    2.570E+01    2.545E+01    2.519E+01    2.493E+01    2.468E+01    2.442E+01    2.417E+01
     2.391E+01    2.366E+01    2.341E+01    2.316E+01    2.290E+01    2.265E+01    2.240E+01    2.215E+01    2.191E+01    2.166E+01
     2.141E+01    2.116E+01    2.092E+01    2.067E+01    2.043E+01    2.018E+01    1.994E+01    1.970E+01    1.946E+01    1.922E+01
     1.898E+01    1.874E+01    1.850E+01    1.826E+01    1.803E+01    1.779E+01    1.755E+01    1.732E+01    1.709E+01    1.686E+01
     1.662E+01    1.639E+01    1.616E+01    1.593E+01    1.571E+01    1.548E+01    1.525E+01    1.503E+01    1.480E+01    1.458E+01
     1.435E+01    1.413E+01    1.391E+01    1.369E+01    1.347E+01    1.325E+01    1.303E+01    1.282E+01    1.260E+01    1.238E+01
     1.217E+01    1.195E+01    1.174E+01    1.153E+01    1.132E+01    1.111E+01    1.090E+01    1.069E+01    1.048E+01    1.027E+01
     1.007E+01    9.861E+00    9.656E+00    9.452E+00    9.249E+00    9.047E+00    8.846E+00    8.645E+00    8.446E+00    8.247E+00
     8.049E+00    7.852E+00    7.656E+00    7.461E+00    7.266E+00    7.073E+00    6.880E+00    6.689E+00    6.498E+00    6.308E+00
     6.119E+00    5.931E+00    5.744E+00    5.558E+00    5.373E+00    5.189E+00    5.005E+00    4.823E+00    4.642E+00    4.461E+00
     4.282E+00    4.104E+00    3.926E+00    3.750E+00    3.574E+00    3.400E+00    3.227E+00    3.054E+00    2.883E+00    2.712E+00
     2.543E+00    2.375E+00    2.208E+00    2.042E+00    1.877E+00    1.712E+00    1.550E+00    1.388E+00    1.227E+00    1.067E+00
     9.085E-01    7.510E-01    5.946E-01    4.393E-01    2.851E-01    1.319E-01   -2.016E-02   -1.711E-01   -3.211E-01   -4.699E-01
    -6.177E-01   -7.644E-01   -9.101E-01   -1.055E+00   -1.198E+00   -1.341E+00   -1.482E+00   -1.623E+00   -1.762E+00   -1.901E+00
    -2.038E+00   -2.174E+00   -2.310E+00   -2.444E+00   -2.578E+00   -2.710E+00   -2.841E+00   -2.972E+00   -3.101E+00   -3.230E+00
    -3.357E+00   -3.484E+00   -3.609E+00   -3.734E+00   -3.858E+00   -3.980E+00   -4.102E+00   -4.223E+00   -4.343E+00   -4.462E+00
    -4.580E+00   -4.697E+00   -4.813E+00   -4.929E+00   -5.043E+00   -5.157E+00   -5.269E+00   -5.381E+00   -5.492E+00   -5.602E+00
    -5.711E+00   -5.819E+00   -5.926E+00   -6.033E+00   -6.138E+00   -6.243E+00   -6.346E+00   -6.449E+00   -6.551E+00   -6.652E+00
    -6.752E+00   -6.851E+00   -6.949E+00   -7.046E+00   -7.143E+00   -7.238E+00   -7.333E+00   -7.426E+00   -7.519E+00   -7.611E+00
    -7.702E+00   -7.792E+00   -7.880E+00   -7.968E+00   -8.056E+00   -8.142E+00   -8.227E+00   -8.311E+00   -8.395E+00   -8.477E+00
    -8.558E+00   -8.639E+00   -8.718E+00   -8.797E+00   -8.875E+00   -8.951E+00   -9.027E+00   -9.102E+00   -9.176E+00   -9.249E+00
    -9.321E+00   -9.391E+00   -9.461E+00   -9.530E+00   -9.599E+00   -9.666E+00   -9.732E+00   -9.797E+00   -9.861E+00   -9.925E+00
    -9.987E+00   -1.005E+01   -1.011E+01   -1.017E+01   -1.023E+01   -1.029E+01   -1.034E+01   -1.040E+01   -1.045E+01   -1.051E+01
    -1.056E+01   -1.061E+01   -1.066E+01   -1.071E+01   -1.076E+01   -1.081E+01   -1.086E+01   -1.091E+01   -1.095E+01   -1.100E+01
    -1.104E+01   -1.109E+01   -1.113E+01   -1.117E+01   -1.121E+01   -1.125E+01   -1.129E+01   -1.133E+01   -1.137E+01   -1.141E+01
    -1.144E+01   -1.148E+01   -1.151E+01   -1.155E+01   -1.158E+01   -1.161E+01   -1.164E+01   -1.167E+01   -1.170E+01   -1.173E+01
    -1.176E+01   -1.179E+01   -1.181E+01   -1.184E+01   -1.187E+01   -1.189E+01   -1.191E+01   -1.194E+01   -1.196E+01   -1.198E+01
    -1.200E+01   -1.202E+01   -1.204E+01   -1.206E+01   -1.208E+01   -1.209E+01   -1.211E+01   -1.213E+01   -1.214E+01   -1.215E+01
    -1.217E+01   -1.218E+01   -1.219E+01   -1.221E+01   -1.222E+01   -1.223E+01   -1.224E+01   -1.225E+01   -1.226E+01   -1.226E+01
    -1.227E+01   -1.228E+01   -1.229E+01   -1.229E+01   -1.230E+01   -1.230E+01   -1.230E+01   -1.231E+01   -1.231E+01   -1.231E+01
    -1.232E+01   -1.232E+01   -1.232E+01   -1.232E+01   -1.232E+01   -1.232E+01   -1.232E+01   -1.231E+01   -1.231E+01   -1.231E+01
    -1.230E+01   -1.230E+01   -1.230E+01   -1.229E+01   -1.229E+01   -1.228E+01   -1.227E+01   -1.227E+01   -1.226E+01   -1.225E+01
    -1.224E+01   -1.224E+01   -1.223E+01   -1.222E+01   -1.221E+01   -1.220E+01   -1.219E+01   -1.218E+01   -1.216E+01   -1.215E+01
    -1.214E+01   -1.213E+01   -1.211E+01   -1.210E+01   -1.209E+01   -1.207E+01   -1.206E+01   -1.204E+01   -1.203E+01   -1.201E+01
    -1.200E+01   -1.198E+01   -1.196E+01   -1.195E+01   -1.193E+01   -1.191E+01   -1.189E+01   -1.187E+01   -1.185E+01   -1.184E+01
    -1.182E+01   -1.180E+01   -1.178E+01   -1.176E+01   -1.174E+01   -1.171E+01   -1.169E+01   -1.167E+01   -1.165E+01   -1.163E+01
    -1.161E+01   -1.158E+01   -1.156E+01   -1.154E+01   -1.151E+01   -1.149E+01   -1.147E+01   -1.144E+01   -1.142E+01   -1.139E+01
    -1.137E+01   -1.134E+01   -1.132E+01   -1.129E+01   -1.127E+01   -1.124E+01   -1.122E+01   -1.119E+01   -1.117E+01   -1.114E+01
    -1.111E+01   -1.109E+01   -1.106E+01   -1.103E+01   -1.101E+01   -1.098E+01   -1.095E+01   -1.092E+01   -1.090E+01   -1.087E+01
    -1.084E+01   -1.081E+01   -1.079E+01   -1.076E+01   -1.073E+01   -1.070E+01   -1.067E+01   -1.064E+01   -1.062E+01   -1.059E+01
    -1.056E+01   -1.053E+01   -1.050E+01   -1.047E+01   -1.044E+01   -1.042E+01   -1.039E+01   -1.036E+01   -1.033E+01   -1.030E+01
    -1.027E+01   -1.024E+01   -1.021E+01   -1.018E+01   -1.015E+01   -1.012E+01   -1.009E+01   -1.006E+01   -1.003E+01   -1.001E+01
    -9.976E+00   -9.946E+00   -9.916E+00   -9.887E+00   -9.857E+00   -9.828E+00   -9.798E+00   -9.768E+00   -9.739E+00   -9.709E+00
    -9.679E+00   -9.650E+00   -9.620E+00   -9.590E+00   -9.561E+00   -9.531E+00   -9.502E+00   -9.472E+00
 Cr       Conc. = 1.06E+03
