 LCModel (Version 6.3-1L) Copyright: S.W. Provencher.          Ref.: Magn. Reson. Med. 30:672-679 (1993).                
 Slice#1 Row#9 Col#3  K_02_press_1_raw_act
 36 lines in following concentration table = NCONC+1
    Conc.  %SD /Cr+PCr  Metabolite                                         
  147.349  63%   0.106 Ala                                                 
    0.000 999%   0.000 Asp                                                 
  254.025  84%   0.182 Cr                                                  
 1.14E+03  20%   0.818 PCr                                                 
   19.709 741% 1.4E-02 GABA                                                
    0.000 999%   0.000 Glc                                                 
  391.862  50%   0.281 Gln                                                 
 1.58E+03  15%   1.132 Glu                                                 
  491.908   4%   0.353 GPC                                                 
    0.000 999%   0.000 PCh                                                 
  469.117  14%   0.336 GSH                                                 
 1.19E+03  20%   0.855 Ins                                                 
    0.000 999%   0.000 Lac                                                 
 2.35E+03   5%   1.683 NAA                                                 
  433.383  27%   0.311 NAAG                                                
   96.572  26% 6.9E-02 Scyllo                                              
  127.541 156% 9.1E-02 Tau                                                 
  369.680  28%   0.265 -CrCH2                                              
  491.908   4%   0.353 GPC+PCh                                             
 2.78E+03   3%   1.994 NAA+NAAG                                            
 1.39E+03   4%   1.000 Cr+PCr                                              
 1.97E+03  17%   1.413 Glu+Gln                                             
  863.563  48%   0.619 Lip13a                                              
    7.857 999% 5.6E-03 Lip13b                                              
    0.000 999%   0.000 Lip09                                               
  758.364  20%   0.544 MM09                                                
  279.714  49%   0.201 Lip20                                               
 1.66E+03  16%   1.187 MM20                                                
  249.437  30%   0.179 MM12                                                
    0.000 999%   0.000 MM14                                                
  374.407  40%   0.268 MM17                                                
  871.420  36%   0.625 Lip13a+Lip13b                                       
 1.12E+03  29%   0.804 MM14+Lip13a+Lip13b+MM12                             
  758.364  20%   0.544 MM09+Lip09                                          
 1.94E+03  15%   1.388 MM20+Lip20                                          
   6 lines in following misc. output table
  FWHM = 0.054 ppm    S/N =  14                                            
  Data shift =-0.008 ppm                                                   
  Ph: -33 deg     -17.1 deg/ppm                                            
  alphaB,S = 5.4E-01,   9.0E+01                                            
   14 spline knots.   Ns = 7(1)                                            
  ( 9) 2 infls.   ( 3) 1 extrs.                                            
  498 points on ppm-axis = NY
      4.000000     3.992357     3.984714     3.977070     3.969427     3.961784     3.954141     3.946497     3.938854     3.931211
      3.923568     3.915925     3.908281     3.900638     3.892995     3.885352     3.877708     3.870065     3.862422     3.854779
      3.847136     3.839492     3.831849     3.824206     3.816563     3.808919     3.801276     3.793633     3.785990     3.778347
      3.770703     3.763060     3.755417     3.747774     3.740130     3.732487     3.724844     3.717201     3.709558     3.701914
      3.694271     3.686628     3.678985     3.671341     3.663698     3.656055     3.648412     3.640769     3.633125     3.625482
      3.617839     3.610196     3.602552     3.594909     3.587266     3.579623     3.571980     3.564336     3.556693     3.549050
      3.541407     3.533763     3.526120     3.518477     3.510834     3.503191     3.495547     3.487904     3.480261     3.472618
      3.464974     3.457331     3.449688     3.442045     3.434402     3.426758     3.419115     3.411472     3.403829     3.396185
      3.388542     3.380899     3.373256     3.365613     3.357969     3.350326     3.342683     3.335040     3.327396     3.319753
      3.312110     3.304467     3.296824     3.289180     3.281537     3.273894     3.266251     3.258607     3.250964     3.243321
      3.235678     3.228034     3.220391     3.212748     3.205105     3.197462     3.189818     3.182175     3.174532     3.166889
      3.159245     3.151602     3.143959     3.136316     3.128673     3.121029     3.113386     3.105743     3.098100     3.090456
      3.082813     3.075170     3.067527     3.059884     3.052240     3.044597     3.036954     3.029311     3.021667     3.014024
      3.006381     2.998738     2.991095     2.983451     2.975808     2.968165     2.960522     2.952878     2.945235     2.937592
      2.929949     2.922306     2.914662     2.907019     2.899376     2.891733     2.884089     2.876446     2.868803     2.861160
      2.853517     2.845873     2.838230     2.830587     2.822944     2.815300     2.807657     2.800014     2.792371     2.784728
      2.777084     2.769441     2.761798     2.754155     2.746511     2.738868     2.731225     2.723582     2.715939     2.708295
      2.700652     2.693009     2.685366     2.677722     2.670079     2.662436     2.654793     2.647150     2.639506     2.631863
      2.624220     2.616577     2.608933     2.601290     2.593647     2.586004     2.578361     2.570717     2.563074     2.555431
      2.547788     2.540144     2.532501     2.524858     2.517215     2.509572     2.501928     2.494285     2.486642     2.478999
      2.471355     2.463712     2.456069     2.448426     2.440783     2.433139     2.425496     2.417853     2.410210     2.402566
      2.394923     2.387280     2.379637     2.371994     2.364350     2.356707     2.349064     2.341421     2.333777     2.326134
      2.318491     2.310848     2.303205     2.295561     2.287918     2.280275     2.272632     2.264988     2.257345     2.249702
      2.242059     2.234416     2.226772     2.219129     2.211486     2.203843     2.196199     2.188556     2.180913     2.173270
      2.165627     2.157983     2.150340     2.142697     2.135054     2.127410     2.119767     2.112124     2.104481     2.096838
      2.089194     2.081551     2.073908     2.066265     2.058621     2.050978     2.043335     2.035692     2.028049     2.020405
      2.012762     2.005119     1.997476     1.989833     1.982190     1.974546     1.966903     1.959260     1.951617     1.943974
      1.936331     1.928688     1.921045     1.913402     1.905759     1.898115     1.890472     1.882829     1.875186     1.867543
      1.859900     1.852257     1.844614     1.836971     1.829327     1.821684     1.814041     1.806398     1.798755     1.791112
      1.783469     1.775826     1.768183     1.760540     1.752896     1.745253     1.737610     1.729967     1.722324     1.714681
      1.707038     1.699395     1.691752     1.684108     1.676465     1.668822     1.661179     1.653536     1.645893     1.638250
      1.630607     1.622964     1.615321     1.607677     1.600034     1.592391     1.584748     1.577105     1.569462     1.561819
      1.554176     1.546533     1.538890     1.531246     1.523603     1.515960     1.508317     1.500674     1.493031     1.485388
      1.477745     1.470102     1.462458     1.454815     1.447172     1.439529     1.431886     1.424243     1.416600     1.408957
      1.401314     1.393671     1.386027     1.378384     1.370741     1.363098     1.355455     1.347812     1.340169     1.332526
      1.324883     1.317240     1.309596     1.301953     1.294310     1.286667     1.279024     1.271381     1.263738     1.256095
      1.248452     1.240808     1.233165     1.225522     1.217879     1.210236     1.202593     1.194950     1.187307     1.179664
      1.172021     1.164377     1.156734     1.149091     1.141448     1.133805     1.126162     1.118519     1.110876     1.103233
      1.095590     1.087946     1.080303     1.072660     1.065017     1.057374     1.049731     1.042088     1.034445     1.026802
      1.019158     1.011515     1.003872     0.996229     0.988586     0.980943     0.973300     0.965657     0.958014     0.950371
      0.942727     0.935084     0.927441     0.919798     0.912155     0.904512     0.896869     0.889226     0.881583     0.873940
      0.866296     0.858653     0.851010     0.843367     0.835724     0.828081     0.820438     0.812795     0.805152     0.797508
      0.789865     0.782222     0.774579     0.766936     0.759293     0.751650     0.744007     0.736364     0.728721     0.721077
      0.713434     0.705791     0.698148     0.690505     0.682862     0.675219     0.667576     0.659933     0.652290     0.644646
      0.637003     0.629360     0.621717     0.614074     0.606431     0.598788     0.591145     0.583502     0.575858     0.568215
      0.560572     0.552929     0.545286     0.537643     0.530000     0.522357     0.514714     0.507071     0.499427     0.491784
      0.484141     0.476498     0.468855     0.461212     0.453569     0.445925     0.438282     0.430639     0.422996     0.415353
      0.407710     0.400067     0.392424     0.384780     0.377137     0.369494     0.361851     0.354208     0.346565     0.338922
      0.331278     0.323635     0.315992     0.308349     0.300706     0.293063     0.285420     0.277777     0.270133     0.262490
      0.254847     0.247204     0.239561     0.231918     0.224275     0.216631     0.208988     0.201345
 NY phased data points follow
  -2.15140E+01 -1.77218E+01 -2.29161E+01 -1.67100E+01 -1.01209E+01 -6.29256E+00 -5.52011E+00 -3.91611E+00  1.29345E+00  3.28433E+00
   3.28421E+00  9.54143E-01 -2.82474E+00 -4.82652E+00 -1.08337E+01 -1.79769E+01 -1.88683E+01 -1.75187E+01 -2.15112E+01 -1.53859E+01
  -1.64024E+01 -1.55793E+01 -1.56109E+01 -1.40671E+01 -1.62307E+01 -1.30976E+01 -1.18500E+01 -5.55574E+00 -1.01833E+01 -5.75389E+00
  -4.05633E+00 -8.57513E+00 -1.11805E+01 -7.18742E+00 -7.75488E+00 -9.46073E+00 -1.40090E+01 -1.08944E+01 -1.55807E+01 -1.06219E+01
  -1.13990E+01 -3.40372E+00 -5.78798E+00 -8.13328E+00 -2.48755E+00 -5.95536E+00 -1.14921E+00  2.91377E-01 -2.33164E+00 -6.02794E+00
  -7.43854E+00 -7.74012E+00 -1.30272E+01 -9.24271E+00 -1.03214E+01 -9.41920E+00 -7.92502E+00 -6.57452E+00 -1.28634E+01 -1.12065E+01
  -1.11084E+01 -1.44200E+01 -1.23123E+01 -1.13227E+01 -1.57715E+01 -1.44349E+01 -1.55147E+01 -1.23737E+01 -1.04151E+01 -1.11137E+01
  -7.31641E+00 -6.05576E+00 -1.06827E+01 -6.83739E+00 -6.22591E+00 -1.07090E+01 -5.55109E+00 -9.98376E+00 -5.90761E+00 -8.74441E+00
  -8.44592E+00 -6.48625E+00 -6.13700E+00 -5.31891E+00 -5.34277E+00 -5.92055E+00 -4.83380E+00 -5.26157E+00 -4.97317E+00 -4.16388E+00
  -2.25477E+00 -3.11275E+00 -7.36482E-01 -1.77433E+00  7.73508E-01  4.09226E+00  4.79523E+00  8.32924E+00  1.50184E+01  2.10582E+01
   3.08086E+01  3.66196E+01  3.72630E+01  3.72776E+01  3.02857E+01  1.77180E+01  1.16996E+01  8.22534E+00  2.56687E+00 -2.92552E+00
  -3.26912E+00 -3.62278E+00 -2.64777E+00 -2.20448E+00 -2.47368E+00 -1.61971E+00 -5.19293E+00 -3.23011E+00  1.44776E+00  3.29267E+00
   3.27402E+00  9.84362E+00  1.56933E+01  2.17867E+01  3.38321E+01  3.22846E+01  3.85411E+01  4.14007E+01  3.81544E+01  2.93772E+01
   1.98270E+01  1.20426E+01  1.60366E+00  3.48431E+00 -7.97944E-01 -3.02051E+00 -4.14177E+00 -3.62245E+00 -3.26887E+00 -2.36370E+00
  -2.88903E+00 -1.18970E+00 -1.98681E+00 -3.03968E+00  2.17469E+00 -3.16427E+00  6.71875E-01 -7.41169E+00 -2.68855E+00 -2.88797E+00
  -2.06374E+00 -3.01505E+00 -7.62237E-01 -3.98270E+00 -9.67289E-01  1.36437E-01 -2.39000E+00 -2.60428E+00  6.57159E-01 -8.57412E-01
  -3.57651E+00 -3.09403E+00 -4.90059E+00 -5.33006E+00 -3.37989E+00 -8.38283E+00 -5.43593E+00 -6.08667E+00 -9.56522E+00 -9.42818E+00
  -1.08789E+01 -1.66825E+01 -1.45177E+01 -1.63751E+01 -1.38996E+01 -1.60498E+01 -1.59658E+01 -1.57896E+01 -1.69291E+01 -1.24117E+01
  -1.18679E+01 -1.01189E+01 -8.80405E+00 -7.70821E+00 -7.63649E+00 -8.68649E+00 -1.68564E+00 -1.22127E+00 -1.82643E+00 -3.01440E+00
  -1.82665E+00  7.20716E-01  2.07666E-01 -2.98321E+00 -5.14787E+00 -5.99409E+00 -1.93420E+00 -7.39575E+00 -7.49533E+00 -8.23166E+00
  -2.03294E+00 -1.65941E+00  3.00841E+00  1.57994E+00  7.18416E+00  3.35290E+00 -7.45845E-01  2.20112E+00 -4.07879E+00 -3.00539E+00
   1.98896E+00 -7.62383E-01  5.76973E+00  7.60636E+00  9.93925E+00  7.33539E+00  1.11557E+01  7.43548E+00  7.14508E+00  3.76277E+00
  -6.05226E-01 -4.47110E+00 -6.87198E+00 -5.91306E-01  2.02465E+00  4.85327E+00  4.02546E+00  6.33491E+00  8.87605E+00  9.13525E+00
   1.24360E+01  9.46943E+00  6.14186E+00  8.54352E+00  9.24758E+00  5.62074E+00  6.31061E+00  8.75445E+00  7.16109E+00  9.68414E+00
   5.33102E+00  4.86150E+00  3.90496E+00  5.61520E+00  9.78310E+00  8.63427E+00  1.78661E+01  1.35040E+01  1.71634E+01  1.91847E+01
   1.97882E+01  2.04807E+01  2.74037E+01  3.14187E+01  3.65606E+01  4.68903E+01  5.89431E+01  7.42914E+01  7.83737E+01  8.32832E+01
   8.85639E+01  9.54619E+01  8.12857E+01  6.27677E+01  4.11508E+01  2.64992E+01  1.42493E+01  1.10417E+01  8.41059E+00  3.49898E+00
   5.21100E+00  9.44782E+00  1.00899E+01  8.16953E+00  9.37461E+00  1.00117E+01  8.35180E+00  1.14368E+01  8.95139E+00  1.29855E+01
   1.03112E+01  9.68174E+00  4.89719E+00  6.71940E+00  8.79668E+00  9.67021E+00  5.19088E+00  2.68576E+00  4.78075E+00  6.93079E+00
   5.74685E+00  7.11009E+00  7.58367E-01  3.11944E+00  4.35046E+00  5.67104E+00  1.08963E+01  8.00812E+00  7.71792E+00  7.43046E+00
   4.31863E+00  7.53925E+00  4.70320E+00  8.70134E+00  9.35446E+00  5.09875E+00  6.23385E+00  9.64682E+00  5.92364E+00  9.43527E+00
   1.01704E+01  1.22069E+01  7.09011E+00  8.03645E+00  8.87890E+00  7.34909E+00  7.52768E+00  8.48543E+00  8.06435E+00  6.47522E+00
   9.53774E+00  9.37492E+00  9.00664E+00  9.03227E+00  5.85659E+00  7.99124E+00  3.73482E+00  1.84569E-01  4.55404E+00  8.11659E+00
  -5.20916E-01  5.50226E+00  1.29475E+00  6.20824E+00  6.52904E+00  5.08524E+00  8.88414E+00  9.63726E-01  3.96288E+00  1.05759E+01
   1.03026E+01  7.39716E+00  6.81850E+00  8.22773E+00  8.05646E+00  7.42103E+00  4.68149E+00  1.15525E+01  8.66524E+00  1.22885E+01
   6.95341E+00  1.25547E+01  1.57517E+01  1.30867E+01  1.03082E+01  1.45487E+01  1.01386E+01  8.81328E+00  9.41939E+00  1.23259E+01
   9.13006E+00  9.54421E+00  1.02084E+01  1.03541E+01  7.41361E+00  1.23038E+01  1.08021E+01  1.27585E+01  1.10806E+01  1.33493E+01
   1.18604E+01  1.35804E+01  1.16933E+01  1.15820E+01  1.07346E+01  1.07948E+01  9.76324E+00  1.12795E+01  1.08422E+01  8.58134E+00
   1.07363E+01  1.12161E+01  1.22708E+01  1.07791E+01  1.09425E+01  1.23164E+01  4.60726E+00  1.05659E+01  5.66378E+00  8.60500E+00
   1.03214E+01  7.65197E+00  8.69569E+00  9.08410E+00  1.15252E+01  1.02582E+01  9.93519E+00  1.04842E+01  1.05612E+01  8.91850E+00
   1.11705E+01  1.01007E+01  1.31334E+01  1.06221E+01  6.99514E+00  7.08049E+00  7.66159E+00  9.56529E+00  1.17556E+01  8.65559E+00
   1.07301E+01  1.32953E+01  7.57642E+00  1.12708E+01  9.48450E+00  1.22912E+01  5.74274E+00  1.03258E+01  7.10703E+00  3.51467E+00
   9.13453E+00  7.47945E+00  5.39267E+00  9.00330E+00  8.26170E+00  5.14205E+00  9.72341E+00  3.03355E+00  7.31612E+00  7.16733E+00
   6.16234E+00  6.53538E+00  7.68408E+00  5.47131E+00  7.39394E+00  4.43101E+00  7.58779E+00  6.84131E+00  7.98607E+00  8.27683E+00
   8.53303E+00  8.41983E+00  4.22454E+00  8.31647E+00  9.96681E+00  1.09023E+01  7.38281E+00  1.01455E+01  1.14656E+01  4.37045E+00
   9.89160E+00  7.80680E+00  8.06540E+00  6.64602E+00  6.12727E+00  7.22480E+00  8.39325E+00  5.08751E+00  7.47556E+00  5.28827E+00
   8.75637E+00  7.39853E+00  3.76032E+00  1.05143E+01  8.00520E+00  7.96797E+00  8.37422E+00  8.83565E+00  6.94949E+00  6.80124E+00
   8.03345E+00  7.63803E+00  4.27152E+00  4.24614E+00  7.77806E+00  6.88707E+00  1.14687E+01  6.26854E+00  7.36811E+00  9.41233E+00
   5.29590E+00  8.65291E+00  6.83404E+00  7.77050E+00  5.38762E+00  8.34290E+00  6.63561E+00  4.23727E+00  3.04370E+00  9.84737E+00
   5.82102E+00  5.10388E+00  2.95845E+00  9.72269E+00  3.15377E+00  6.53461E+00  8.59604E+00  7.37863E+00
 NY points of the fit to the data follow
  -2.05325E+01 -1.98116E+01 -1.79722E+01 -1.53695E+01 -1.21165E+01 -8.40029E+00 -4.73421E+00 -1.40556E+00  1.40782E+00  3.15892E+00
   2.96137E+00  5.71547E-01 -3.27049E+00 -7.42920E+00 -1.09781E+01 -1.34162E+01 -1.48481E+01 -1.56361E+01 -1.59992E+01 -1.61494E+01
  -1.61601E+01 -1.61425E+01 -1.58247E+01 -1.50208E+01 -1.40991E+01 -1.28164E+01 -1.11351E+01 -9.37179E+00 -7.55823E+00 -5.68745E+00
  -4.22098E+00 -3.93703E+00 -4.88742E+00 -6.44578E+00 -8.22353E+00 -1.00914E+01 -1.18140E+01 -1.31918E+01 -1.39844E+01 -1.39278E+01
  -1.29180E+01 -1.11557E+01 -9.06438E+00 -7.10610E+00 -5.57825E+00 -4.48752E+00 -3.78684E+00 -3.72452E+00 -4.66367E+00 -6.53654E+00
  -8.78527E+00 -1.06977E+01 -1.18283E+01 -1.21686E+01 -1.18640E+01 -1.11844E+01 -1.04075E+01 -9.71059E+00 -9.16190E+00 -8.80380E+00
  -8.73056E+00 -9.01685E+00 -9.55237E+00 -1.01435E+01 -1.05069E+01 -1.04894E+01 -1.01218E+01 -9.52399E+00 -8.85112E+00 -8.24711E+00
  -7.79562E+00 -7.48323E+00 -7.32579E+00 -7.36012E+00 -7.52823E+00 -7.70169E+00 -7.83368E+00 -7.94022E+00 -7.99738E+00 -7.90033E+00
  -7.48627E+00 -6.96543E+00 -6.36003E+00 -5.71402E+00 -5.18101E+00 -4.78063E+00 -4.46028E+00 -4.36615E+00 -4.68999E+00 -5.27600E+00
  -5.79174E+00 -5.97589E+00 -5.79173E+00 -5.28903E+00 -4.16170E+00 -1.05458E+00  3.94701E+00  9.71117E+00  1.63707E+01  2.32647E+01
   2.94221E+01  3.46636E+01  3.81513E+01  3.74139E+01  3.10940E+01  2.12623E+01  1.14376E+01  3.80531E+00 -1.09184E+00 -3.69420E+00
  -4.90092E+00 -5.33554E+00 -5.37361E+00 -5.28382E+00 -5.13245E+00 -4.92943E+00 -4.65443E+00 -4.23313E+00 -3.47086E+00 -1.44816E+00
   3.07397E+00  8.76382E+00  1.53213E+01  2.25480E+01  2.93345E+01  3.51769E+01  3.99717E+01  4.18759E+01  3.83401E+01  2.97770E+01
   1.94486E+01  1.03864E+01  3.87420E+00 -1.74472E-01 -2.57605E+00 -4.07919E+00 -4.84708E+00 -4.95957E+00 -4.52474E+00 -3.72998E+00
  -2.85189E+00 -2.16949E+00 -1.86826E+00 -1.97218E+00 -2.33862E+00 -2.77231E+00 -3.16035E+00 -3.47747E+00 -3.71890E+00 -3.90489E+00
  -4.06699E+00 -4.19041E+00 -4.25126E+00 -4.28025E+00 -4.36836E+00 -4.49205E+00 -4.59337E+00 -4.71303E+00 -4.81185E+00 -4.94830E+00
  -5.21401E+00 -5.51884E+00 -5.70515E+00 -5.66812E+00 -5.44583E+00 -5.28162E+00 -5.44289E+00 -5.96352E+00 -6.65005E+00 -7.30720E+00
  -7.84600E+00 -8.13795E+00 -8.28856E+00 -8.41831E+00 -8.60149E+00 -8.83816E+00 -8.96433E+00 -8.82055E+00 -8.38475E+00 -7.86639E+00
  -7.62872E+00 -7.67453E+00 -7.60063E+00 -7.16245E+00 -6.31390E+00 -5.18604E+00 -3.98583E+00 -2.74557E+00 -1.37600E+00  2.39293E-02
   1.12376E+00  1.58948E+00  1.38330E+00  6.75083E-01 -2.00471E-01 -8.66050E-01 -1.10178E+00 -7.82694E-01  1.38787E-02  1.13360E+00
   2.34546E+00  3.35285E+00  3.98412E+00  4.04790E+00  3.61666E+00  2.66729E+00  1.10861E+00 -7.06963E-01 -2.21761E+00 -2.92231E+00
  -2.60635E+00 -1.33802E+00  7.27871E-01  3.04656E+00  5.09696E+00  6.49025E+00  6.73529E+00  5.47685E+00  2.86256E+00 -3.82343E-01
  -3.15454E+00 -4.79169E+00 -5.13626E+00 -4.06555E+00 -1.66038E+00  1.52005E+00  4.52827E+00  6.62714E+00  7.70002E+00  7.98221E+00
   7.87379E+00  7.66086E+00  7.62403E+00  7.96647E+00  8.53050E+00  8.98863E+00  9.07444E+00  8.82128E+00  8.28518E+00  7.54972E+00
   6.87916E+00  6.60968E+00  6.83686E+00  7.53963E+00  8.72516E+00  1.02232E+01  1.16582E+01  1.27647E+01  1.38467E+01  1.54474E+01
   1.73252E+01  1.96369E+01  2.28575E+01  2.88633E+01  3.90241E+01  5.02017E+01  6.17725E+01  7.23790E+01  8.02085E+01  8.59233E+01
   9.02667E+01  8.97050E+01  7.99276E+01  6.25613E+01  4.38132E+01  2.84671E+01  1.79693E+01  1.19811E+01  8.96192E+00  7.53092E+00
   7.01620E+00  6.83941E+00  6.78590E+00  6.80251E+00  6.84646E+00  6.85012E+00  6.75903E+00  6.57624E+00  6.36402E+00  6.18010E+00
   6.04098E+00  5.94779E+00  5.90509E+00  5.90249E+00  5.91412E+00  5.92269E+00  5.92512E+00  5.93025E+00  5.94913E+00  5.99012E+00
   6.05925E+00  6.15969E+00  6.28383E+00  6.41669E+00  6.54031E+00  6.64932E+00  6.74975E+00  6.84799E+00  6.94757E+00  7.05314E+00
   7.16894E+00  7.29228E+00  7.41347E+00  7.52281E+00  7.61334E+00  7.68064E+00  7.72383E+00  7.74471E+00  7.74575E+00  7.72984E+00
   7.69931E+00  7.65650E+00  7.60419E+00  7.54601E+00  7.48618E+00  7.42961E+00  7.38193E+00  7.35051E+00  7.34729E+00  7.39779E+00
   7.53419E+00  7.66693E+00  7.74174E+00  7.76251E+00  7.67785E+00  7.46413E+00  7.12808E+00  6.62355E+00  5.98848E+00  5.38550E+00
   5.00149E+00  4.99419E+00  5.33880E+00  5.91066E+00  6.63145E+00  7.44883E+00  8.21546E+00  8.72876E+00  8.92844E+00  8.92122E+00
   8.84208E+00  8.78471E+00  8.79499E+00  8.87093E+00  8.99883E+00  9.16626E+00  9.35776E+00  9.56402E+00  9.77853E+00  9.99561E+00
   1.02097E+01  1.04156E+01  1.06082E+01  1.07827E+01  1.09346E+01  1.10599E+01  1.11554E+01  1.12191E+01  1.12504E+01  1.12494E+01
   1.12175E+01  1.11565E+01  1.10690E+01  1.09582E+01  1.08278E+01  1.06814E+01  1.05225E+01  1.03549E+01  1.01821E+01  1.00080E+01
   9.83608E+00  9.66970E+00  9.51178E+00  9.36506E+00  9.23212E+00  9.11534E+00  9.01668E+00  8.93766E+00  8.87945E+00  8.84306E+00
   8.82934E+00  8.83891E+00  8.87195E+00  8.92825E+00  9.00731E+00  9.10844E+00  9.23061E+00  9.37234E+00  9.53151E+00  9.70546E+00
   9.89108E+00  1.00849E+01  1.02831E+01  1.04811E+01  1.06741E+01  1.08571E+01  1.10251E+01  1.11735E+01  1.12979E+01  1.13942E+01
   1.14592E+01  1.14902E+01  1.14861E+01  1.14464E+01  1.13718E+01  1.12639E+01  1.11251E+01  1.09588E+01  1.07690E+01  1.05602E+01
   1.03371E+01  1.01043E+01  9.86613E+00  9.62710E+00  9.39114E+00  9.16164E+00  8.94130E+00  8.73224E+00  8.53605E+00  8.35391E+00
   8.18646E+00  8.03383E+00  7.89569E+00  7.77148E+00  7.66054E+00  7.56209E+00  7.47525E+00  7.39895E+00  7.33210E+00  7.27372E+00
   7.22296E+00  7.17907E+00  7.14125E+00  7.10869E+00  7.08070E+00  7.05672E+00  7.03635E+00  7.01917E+00  7.00477E+00  6.99270E+00
   6.98264E+00  6.97437E+00  6.96776E+00  6.96262E+00  6.95868E+00  6.95571E+00  6.95357E+00  6.95224E+00  6.95165E+00  6.95167E+00
   6.95212E+00  6.95289E+00  6.95395E+00  6.95533E+00  6.95700E+00  6.95886E+00  6.96081E+00  6.96281E+00  6.96492E+00  6.96718E+00
   6.96954E+00  6.97191E+00  6.97423E+00  6.97652E+00  6.97886E+00  6.98128E+00  6.98370E+00  6.98604E+00  6.98830E+00  6.99052E+00
   6.99279E+00  6.99508E+00  6.99734E+00  6.99949E+00  7.00157E+00  7.00367E+00  7.00583E+00  7.00799E+00  7.01008E+00  7.01209E+00
   7.01409E+00  7.01614E+00  7.01827E+00  7.02039E+00  7.02248E+00  7.02454E+00  7.02667E+00  7.02891E+00  7.03126E+00  7.03364E+00
   7.03603E+00  7.03851E+00  7.04115E+00  7.04400E+00  7.04702E+00  7.05014E+00  7.05342E+00  7.05695E+00
 NY background values follow
    -2.481E+01   -2.462E+01   -2.444E+01   -2.425E+01   -2.406E+01   -2.387E+01   -2.369E+01   -2.350E+01   -2.331E+01   -2.312E+01
    -2.294E+01   -2.275E+01   -2.256E+01   -2.237E+01   -2.219E+01   -2.200E+01   -2.181E+01   -2.163E+01   -2.144E+01   -2.125E+01
    -2.107E+01   -2.088E+01   -2.070E+01   -2.051E+01   -2.032E+01   -2.014E+01   -1.995E+01   -1.977E+01   -1.959E+01   -1.940E+01
    -1.922E+01   -1.904E+01   -1.885E+01   -1.867E+01   -1.849E+01   -1.831E+01   -1.812E+01   -1.794E+01   -1.776E+01   -1.758E+01
    -1.740E+01   -1.722E+01   -1.705E+01   -1.687E+01   -1.669E+01   -1.651E+01   -1.634E+01   -1.616E+01   -1.599E+01   -1.581E+01
    -1.564E+01   -1.546E+01   -1.529E+01   -1.512E+01   -1.495E+01   -1.478E+01   -1.461E+01   -1.444E+01   -1.427E+01   -1.410E+01
    -1.394E+01   -1.377E+01   -1.361E+01   -1.344E+01   -1.328E+01   -1.312E+01   -1.296E+01   -1.280E+01   -1.264E+01   -1.249E+01
    -1.233E+01   -1.218E+01   -1.202E+01   -1.187E+01   -1.172E+01   -1.157E+01   -1.142E+01   -1.128E+01   -1.113E+01   -1.099E+01
    -1.084E+01   -1.070E+01   -1.056E+01   -1.042E+01   -1.029E+01   -1.015E+01   -1.002E+01   -9.887E+00   -9.756E+00   -9.627E+00
    -9.500E+00   -9.374E+00   -9.250E+00   -9.128E+00   -9.008E+00   -8.889E+00   -8.772E+00   -8.656E+00   -8.543E+00   -8.430E+00
    -8.320E+00   -8.211E+00   -8.104E+00   -7.999E+00   -7.895E+00   -7.793E+00   -7.692E+00   -7.594E+00   -7.497E+00   -7.401E+00
    -7.307E+00   -7.215E+00   -7.124E+00   -7.036E+00   -6.948E+00   -6.863E+00   -6.779E+00   -6.696E+00   -6.616E+00   -6.536E+00
    -6.459E+00   -6.383E+00   -6.309E+00   -6.236E+00   -6.165E+00   -6.096E+00   -6.028E+00   -5.962E+00   -5.897E+00   -5.834E+00
    -5.773E+00   -5.713E+00   -5.655E+00   -5.598E+00   -5.543E+00   -5.490E+00   -5.438E+00   -5.387E+00   -5.338E+00   -5.291E+00
    -5.245E+00   -5.200E+00   -5.156E+00   -5.114E+00   -5.072E+00   -5.031E+00   -4.991E+00   -4.952E+00   -4.914E+00   -4.876E+00
    -4.839E+00   -4.802E+00   -4.766E+00   -4.730E+00   -4.694E+00   -4.658E+00   -4.623E+00   -4.587E+00   -4.552E+00   -4.516E+00
    -4.480E+00   -4.444E+00   -4.407E+00   -4.370E+00   -4.332E+00   -4.294E+00   -4.255E+00   -4.216E+00   -4.175E+00   -4.134E+00
    -4.091E+00   -4.048E+00   -4.003E+00   -3.957E+00   -3.910E+00   -3.862E+00   -3.812E+00   -3.760E+00   -3.707E+00   -3.652E+00
    -3.596E+00   -3.538E+00   -3.477E+00   -3.415E+00   -3.352E+00   -3.286E+00   -3.219E+00   -3.150E+00   -3.080E+00   -3.008E+00
    -2.934E+00   -2.860E+00   -2.784E+00   -2.706E+00   -2.627E+00   -2.548E+00   -2.467E+00   -2.384E+00   -2.301E+00   -2.217E+00
    -2.132E+00   -2.046E+00   -1.959E+00   -1.872E+00   -1.783E+00   -1.694E+00   -1.604E+00   -1.514E+00   -1.423E+00   -1.332E+00
    -1.240E+00   -1.148E+00   -1.056E+00   -9.634E-01   -8.705E-01   -7.775E-01   -6.843E-01   -5.911E-01   -4.979E-01   -4.047E-01
    -3.117E-01   -2.187E-01   -1.260E-01   -3.351E-02    5.867E-02    1.505E-01    2.419E-01    3.329E-01    4.234E-01    5.134E-01
     6.030E-01    6.919E-01    7.804E-01    8.683E-01    9.556E-01    1.042E+00    1.128E+00    1.214E+00    1.299E+00    1.383E+00
     1.467E+00    1.549E+00    1.632E+00    1.713E+00    1.794E+00    1.873E+00    1.953E+00    2.031E+00    2.108E+00    2.185E+00
     2.261E+00    2.336E+00    2.410E+00    2.483E+00    2.555E+00    2.627E+00    2.697E+00    2.767E+00    2.835E+00    2.902E+00
     2.969E+00    3.034E+00    3.099E+00    3.162E+00    3.224E+00    3.285E+00    3.345E+00    3.404E+00    3.461E+00    3.518E+00
     3.573E+00    3.627E+00    3.680E+00    3.732E+00    3.782E+00    3.832E+00    3.880E+00    3.927E+00    3.973E+00    4.018E+00
     4.062E+00    4.104E+00    4.146E+00    4.187E+00    4.227E+00    4.266E+00    4.304E+00    4.341E+00    4.377E+00    4.413E+00
     4.447E+00    4.481E+00    4.514E+00    4.546E+00    4.577E+00    4.608E+00    4.638E+00    4.668E+00    4.696E+00    4.724E+00
     4.752E+00    4.779E+00    4.805E+00    4.831E+00    4.856E+00    4.881E+00    4.905E+00    4.929E+00    4.952E+00    4.975E+00
     4.998E+00    5.020E+00    5.042E+00    5.064E+00    5.085E+00    5.106E+00    5.127E+00    5.147E+00    5.168E+00    5.188E+00
     5.208E+00    5.227E+00    5.247E+00    5.266E+00    5.285E+00    5.303E+00    5.322E+00    5.340E+00    5.358E+00    5.376E+00
     5.394E+00    5.411E+00    5.429E+00    5.446E+00    5.462E+00    5.479E+00    5.495E+00    5.512E+00    5.528E+00    5.544E+00
     5.559E+00    5.575E+00    5.590E+00    5.605E+00    5.620E+00    5.634E+00    5.649E+00    5.663E+00    5.677E+00    5.691E+00
     5.704E+00    5.718E+00    5.731E+00    5.744E+00    5.757E+00    5.770E+00    5.782E+00    5.795E+00    5.807E+00    5.819E+00
     5.830E+00    5.842E+00    5.854E+00    5.865E+00    5.876E+00    5.887E+00    5.898E+00    5.908E+00    5.919E+00    5.929E+00
     5.940E+00    5.950E+00    5.960E+00    5.970E+00    5.980E+00    5.990E+00    6.000E+00    6.010E+00    6.019E+00    6.029E+00
     6.039E+00    6.048E+00    6.058E+00    6.068E+00    6.078E+00    6.087E+00    6.097E+00    6.107E+00    6.117E+00    6.127E+00
     6.137E+00    6.147E+00    6.157E+00    6.167E+00    6.177E+00    6.188E+00    6.198E+00    6.209E+00    6.220E+00    6.231E+00
     6.242E+00    6.253E+00    6.265E+00    6.277E+00    6.288E+00    6.301E+00    6.313E+00    6.325E+00    6.338E+00    6.351E+00
     6.364E+00    6.377E+00    6.391E+00    6.404E+00    6.418E+00    6.432E+00    6.446E+00    6.460E+00    6.474E+00    6.489E+00
     6.503E+00    6.518E+00    6.532E+00    6.546E+00    6.561E+00    6.576E+00    6.590E+00    6.605E+00    6.619E+00    6.633E+00
     6.648E+00    6.662E+00    6.676E+00    6.691E+00    6.705E+00    6.718E+00    6.732E+00    6.746E+00    6.759E+00    6.773E+00
     6.786E+00    6.799E+00    6.811E+00    6.824E+00    6.836E+00    6.848E+00    6.860E+00    6.872E+00    6.883E+00    6.894E+00
     6.905E+00    6.915E+00    6.925E+00    6.934E+00    6.944E+00    6.953E+00    6.962E+00    6.970E+00    6.978E+00    6.986E+00
     6.993E+00    7.000E+00    7.007E+00    7.014E+00    7.021E+00    7.027E+00    7.033E+00    7.038E+00    7.044E+00    7.049E+00
     7.054E+00    7.059E+00    7.064E+00    7.068E+00    7.073E+00    7.077E+00    7.081E+00    7.084E+00    7.088E+00    7.092E+00
     7.095E+00    7.098E+00    7.101E+00    7.104E+00    7.107E+00    7.110E+00    7.113E+00    7.116E+00    7.118E+00    7.121E+00
     7.123E+00    7.126E+00    7.128E+00    7.130E+00    7.133E+00    7.135E+00    7.137E+00    7.139E+00
 Ala      Conc. = 1.47E+02
