 LCModel (Version 6.3-1L) Copyright: S.W. Provencher.          Ref.: Magn. Reson. Med. 30:672-679 (1993).                
 Slice#2 Row#6 Col#13  K_02_press_1_raw_act
 36 lines in following concentration table = NCONC+1
    Conc.  %SD /Cr+PCr  Metabolite                                         
  325.325 215%   1.079 Ala                                                 
   47.562  86%   0.158 Asp                                                 
    0.000 999%   0.000 Cr                                                  
  301.410  27%   1.000 PCr                                                 
   28.522  86% 9.5E-02 GABA                                                
   30.417  81%   0.101 Glc                                                 
 1.30E+04   7%  43.100 Gln                                                 
    0.000 999%   0.000 Glu                                                 
    0.000 999%   0.000 GPC                                                 
  160.679  18%   0.533 PCh                                                 
    0.000 999%   0.000 GSH                                                 
 1.37E+03  23%   4.542 Ins                                                 
  523.727 159%   1.738 Lac                                                 
   37.619 603%   0.125 NAA                                                 
  113.431 190%   0.376 NAAG                                                
   16.657  48% 5.5E-02 Scyllo                                              
   65.119  62%   0.216 Tau                                                 
    0.000 999%   0.000 -CrCH2                                              
  160.679  18%   0.533 GPC+PCh                                             
  151.050  79%   0.501 NAA+NAAG                                            
  301.410  27%   1.000 Cr+PCr                                              
 1.30E+04   7%  43.100 Glu+Gln                                             
 5.11E+04  11% 169.497 Lip13a                                              
    0.000 999%   0.000 Lip13b                                              
 7.92E+03  19%  26.291 Lip09                                               
 5.67E+03  22%  18.824 MM09                                                
    0.000 999%   0.000-Lip20                                               
 1.95E+03  30%   6.465 MM20                                                
 3.24E+03  28%  10.758 MM12                                                
 3.62E+04  10% 120.251+MM14                                                
 1.97E+04  13%  65.425+MM17                                                
 5.11E+04  11% 169.497 Lip13a+Lip13b                                       
 9.06E+04   5% 300.506 MM14+Lip13a+Lip13b+MM12                             
 1.36E+04  12%  45.115 MM09+Lip09                                          
 1.95E+03  30%   6.465 MM20+Lip20                                          
   6 lines in following misc. output table
  FWHM = 0.138 ppm    S/N =  35                                            
  Data shift = 0.237 ppm                                                   
  Ph:  22 deg      -5.9 deg/ppm                                            
  alphaB,S = 8.5E+01,   2.6E+02                                            
    6 spline knots.   Ns = 9(2)                                            
   3 inflections.     1 extrema                                            
  498 points on ppm-axis = NY
      4.000000     3.992357     3.984714     3.977070     3.969427     3.961784     3.954141     3.946497     3.938854     3.931211
      3.923568     3.915925     3.908281     3.900638     3.892995     3.885352     3.877708     3.870065     3.862422     3.854779
      3.847136     3.839492     3.831849     3.824206     3.816563     3.808919     3.801276     3.793633     3.785990     3.778347
      3.770703     3.763060     3.755417     3.747774     3.740130     3.732487     3.724844     3.717201     3.709558     3.701914
      3.694271     3.686628     3.678985     3.671341     3.663698     3.656055     3.648412     3.640769     3.633125     3.625482
      3.617839     3.610196     3.602552     3.594909     3.587266     3.579623     3.571980     3.564336     3.556693     3.549050
      3.541407     3.533763     3.526120     3.518477     3.510834     3.503191     3.495547     3.487904     3.480261     3.472618
      3.464974     3.457331     3.449688     3.442045     3.434402     3.426758     3.419115     3.411472     3.403829     3.396185
      3.388542     3.380899     3.373256     3.365613     3.357969     3.350326     3.342683     3.335040     3.327396     3.319753
      3.312110     3.304467     3.296824     3.289180     3.281537     3.273894     3.266251     3.258607     3.250964     3.243321
      3.235678     3.228034     3.220391     3.212748     3.205105     3.197462     3.189818     3.182175     3.174532     3.166889
      3.159245     3.151602     3.143959     3.136316     3.128673     3.121029     3.113386     3.105743     3.098100     3.090456
      3.082813     3.075170     3.067527     3.059884     3.052240     3.044597     3.036954     3.029311     3.021667     3.014024
      3.006381     2.998738     2.991095     2.983451     2.975808     2.968165     2.960522     2.952878     2.945235     2.937592
      2.929949     2.922306     2.914662     2.907019     2.899376     2.891733     2.884089     2.876446     2.868803     2.861160
      2.853517     2.845873     2.838230     2.830587     2.822944     2.815300     2.807657     2.800014     2.792371     2.784728
      2.777084     2.769441     2.761798     2.754155     2.746511     2.738868     2.731225     2.723582     2.715939     2.708295
      2.700652     2.693009     2.685366     2.677722     2.670079     2.662436     2.654793     2.647150     2.639506     2.631863
      2.624220     2.616577     2.608933     2.601290     2.593647     2.586004     2.578361     2.570717     2.563074     2.555431
      2.547788     2.540144     2.532501     2.524858     2.517215     2.509572     2.501928     2.494285     2.486642     2.478999
      2.471355     2.463712     2.456069     2.448426     2.440783     2.433139     2.425496     2.417853     2.410210     2.402566
      2.394923     2.387280     2.379637     2.371994     2.364350     2.356707     2.349064     2.341421     2.333777     2.326134
      2.318491     2.310848     2.303205     2.295561     2.287918     2.280275     2.272632     2.264988     2.257345     2.249702
      2.242059     2.234416     2.226772     2.219129     2.211486     2.203843     2.196199     2.188556     2.180913     2.173270
      2.165627     2.157983     2.150340     2.142697     2.135054     2.127410     2.119767     2.112124     2.104481     2.096838
      2.089194     2.081551     2.073908     2.066265     2.058621     2.050978     2.043335     2.035692     2.028049     2.020405
      2.012762     2.005119     1.997476     1.989833     1.982190     1.974546     1.966903     1.959260     1.951617     1.943974
      1.936331     1.928688     1.921045     1.913402     1.905759     1.898115     1.890472     1.882829     1.875186     1.867543
      1.859900     1.852257     1.844614     1.836971     1.829327     1.821684     1.814041     1.806398     1.798755     1.791112
      1.783469     1.775826     1.768183     1.760540     1.752896     1.745253     1.737610     1.729967     1.722324     1.714681
      1.707038     1.699395     1.691752     1.684108     1.676465     1.668822     1.661179     1.653536     1.645893     1.638250
      1.630607     1.622964     1.615321     1.607677     1.600034     1.592391     1.584748     1.577105     1.569462     1.561819
      1.554176     1.546533     1.538890     1.531246     1.523603     1.515960     1.508317     1.500674     1.493031     1.485388
      1.477745     1.470102     1.462458     1.454815     1.447172     1.439529     1.431886     1.424243     1.416600     1.408957
      1.401314     1.393671     1.386027     1.378384     1.370741     1.363098     1.355455     1.347812     1.340169     1.332526
      1.324883     1.317240     1.309596     1.301953     1.294310     1.286667     1.279024     1.271381     1.263738     1.256095
      1.248452     1.240808     1.233165     1.225522     1.217879     1.210236     1.202593     1.194950     1.187307     1.179664
      1.172021     1.164377     1.156734     1.149091     1.141448     1.133805     1.126162     1.118519     1.110876     1.103233
      1.095590     1.087946     1.080303     1.072660     1.065017     1.057374     1.049731     1.042088     1.034445     1.026802
      1.019158     1.011515     1.003872     0.996229     0.988586     0.980943     0.973300     0.965657     0.958014     0.950371
      0.942727     0.935084     0.927441     0.919798     0.912155     0.904512     0.896869     0.889226     0.881583     0.873940
      0.866296     0.858653     0.851010     0.843367     0.835724     0.828081     0.820438     0.812795     0.805152     0.797508
      0.789865     0.782222     0.774579     0.766936     0.759293     0.751650     0.744007     0.736364     0.728721     0.721077
      0.713434     0.705791     0.698148     0.690505     0.682862     0.675219     0.667576     0.659933     0.652290     0.644646
      0.637003     0.629360     0.621717     0.614074     0.606431     0.598788     0.591145     0.583502     0.575858     0.568215
      0.560572     0.552929     0.545286     0.537643     0.530000     0.522357     0.514714     0.507071     0.499427     0.491784
      0.484141     0.476498     0.468855     0.461212     0.453569     0.445925     0.438282     0.430639     0.422996     0.415353
      0.407710     0.400067     0.392424     0.384780     0.377137     0.369494     0.361851     0.354208     0.346565     0.338922
      0.331278     0.323635     0.315992     0.308349     0.300706     0.293063     0.285420     0.277777     0.270133     0.262490
      0.254847     0.247204     0.239561     0.231918     0.224275     0.216631     0.208988     0.201345
 NY phased data points follow
   1.26795E+01  1.23491E+01  1.21337E+01  8.99260E+00  1.07160E+01  9.70915E+00  1.37505E+01  1.21008E+01  1.32767E+01  1.36638E+01
   1.32420E+01  1.33451E+01  1.43871E+01  1.06890E+01  1.44376E+01  1.16105E+01  1.47044E+01  1.29142E+01  1.29744E+01  1.06335E+01
   1.31433E+01  8.98144E+00  1.29115E+01  1.29840E+01  1.05652E+01  8.11274E+00  1.38532E+01  1.06207E+01  1.17648E+01  1.14908E+01
   1.22133E+01  1.23977E+01  1.12177E+01  9.79887E+00  1.07976E+01  1.44568E+01  1.07558E+01  1.21210E+01  1.54385E+01  1.19761E+01
   1.00632E+01  1.25017E+01  1.12961E+01  1.20622E+01  1.08988E+01  1.45893E+01  1.16694E+01  1.23450E+01  1.31476E+01  1.06048E+01
   1.32489E+01  1.08533E+01  1.27936E+01  1.14345E+01  1.10217E+01  9.96003E+00  1.13130E+01  9.72553E+00  8.29982E+00  1.10684E+01
   1.13111E+01  1.27320E+01  9.33235E+00  1.11366E+01  9.71972E+00  1.07839E+01  7.80444E+00  8.06820E+00  9.14940E+00  1.16130E+01
   1.13013E+01  9.98188E+00  7.49259E+00  9.73145E+00  8.63715E+00  8.70415E+00  8.12536E+00  8.73430E+00  9.31504E+00  1.15539E+01
   1.11504E+01  1.14249E+01  1.03846E+01  1.04104E+01  8.83915E+00  1.06159E+01  9.29057E+00  1.24033E+01  8.77431E+00  7.91798E+00
   8.47079E+00  1.01180E+01  1.04675E+01  1.16364E+01  1.31617E+01  1.34350E+01  1.30254E+01  9.97812E+00  8.82183E+00  9.06937E+00
   9.22426E+00  7.96737E+00  1.09087E+01  9.54611E+00  1.09181E+01  1.16387E+01  9.30803E+00  1.09682E+01  1.10244E+01  1.37689E+01
   1.24427E+01  1.09833E+01  8.67596E+00  1.21115E+01  1.24704E+01  1.20596E+01  9.81035E+00  1.10513E+01  1.20459E+01  1.14013E+01
   9.92714E+00  9.94077E+00  1.07251E+01  1.23921E+01  1.04683E+01  9.32507E+00  1.22855E+01  1.08924E+01  1.17805E+01  7.01808E+00
   1.25300E+01  8.86764E+00  1.07397E+01  1.29302E+01  8.19481E+00  1.15407E+01  1.18417E+01  9.66584E+00  9.14185E+00  1.06596E+01
   8.46851E+00  7.76420E+00  9.91823E+00  1.00168E+01  1.14004E+01  7.31269E+00  9.16510E+00  8.69433E+00  8.76898E+00  7.98855E+00
   8.34731E+00  8.90226E+00  6.81510E+00  1.01841E+01  8.43099E+00  9.20183E+00  8.06087E+00  6.48530E+00  9.51553E+00  1.00177E+01
   6.43261E+00  8.74233E+00  6.56220E+00  6.94624E+00  7.65206E+00  6.31575E+00  6.90733E+00  6.38862E+00  5.11755E+00  5.62797E+00
   3.43925E+00  4.95142E+00  5.72983E+00  1.03670E+01  7.95458E+00  6.73662E+00  7.03039E+00  7.19913E+00  7.17369E+00  7.47585E+00
   6.23023E+00  6.62028E+00  6.29054E+00  7.99073E+00  8.32574E+00  9.77878E+00  1.11371E+01  8.11109E+00  8.04007E+00  8.52182E+00
   8.27030E+00  7.70290E+00  7.16795E+00  5.37907E+00  5.35708E+00  9.88538E+00  8.57747E+00  6.74520E+00  7.94311E+00  7.34993E+00
   5.26617E+00  8.96049E+00  6.71941E+00  6.07701E+00  9.13544E+00  1.15366E+01  9.82674E+00  9.55651E+00  9.75938E+00  6.24274E+00
   1.15503E+01  1.00948E+01  1.00648E+01  9.75379E+00  1.07746E+01  1.06605E+01  1.13482E+01  1.07222E+01  1.23359E+01  1.08430E+01
   1.45688E+01  1.28954E+01  1.78505E+01  1.75863E+01  1.67517E+01  2.09778E+01  2.24591E+01  2.81403E+01  3.59707E+01  4.14552E+01
   4.61699E+01  4.87973E+01  4.65660E+01  4.36625E+01  4.05801E+01  3.82028E+01  3.59867E+01  3.45606E+01  2.93382E+01  3.40294E+01
   3.03736E+01  3.02547E+01  3.06383E+01  2.75178E+01  2.90928E+01  3.12661E+01  2.83226E+01  2.94633E+01  3.11902E+01  3.08528E+01
   3.13852E+01  3.11110E+01  3.10248E+01  3.08666E+01  3.61684E+01  3.69734E+01  3.76486E+01  3.54204E+01  3.82015E+01  3.99322E+01
   4.05855E+01  4.20331E+01  4.51244E+01  4.54766E+01  4.68314E+01  4.66753E+01  5.00767E+01  5.25349E+01  5.42696E+01  5.82765E+01
   5.73095E+01  6.16274E+01  6.20162E+01  6.56003E+01  6.70618E+01  7.17670E+01  7.21295E+01  7.57763E+01  8.13051E+01  8.55432E+01
   8.90644E+01  9.27914E+01  1.01978E+02  1.03652E+02  1.06024E+02  1.11197E+02  1.15863E+02  1.18242E+02  1.22293E+02  1.28693E+02
   1.33716E+02  1.38009E+02  1.42816E+02  1.49329E+02  1.54011E+02  1.58796E+02  1.65816E+02  1.71332E+02  1.75218E+02  1.83365E+02
   1.85630E+02  1.95970E+02  1.97600E+02  2.04894E+02  2.03262E+02  2.10362E+02  2.16464E+02  2.17281E+02  2.20395E+02  2.20951E+02
   2.22671E+02  2.24382E+02  2.28199E+02  2.30416E+02  2.31497E+02  2.31228E+02  2.33558E+02  2.31365E+02  2.30454E+02  2.31150E+02
   2.28774E+02  2.29091E+02  2.23586E+02  2.24487E+02  2.22687E+02  2.16901E+02  2.15019E+02  2.12401E+02  2.08439E+02  2.09282E+02
   2.04768E+02  2.03306E+02  2.02625E+02  2.00173E+02  1.95166E+02  1.93685E+02  1.93798E+02  1.90828E+02  1.89387E+02  1.89015E+02
   1.86241E+02  1.83327E+02  1.81073E+02  1.80128E+02  1.76257E+02  1.76725E+02  1.71419E+02  1.72269E+02  1.71311E+02  1.69983E+02
   1.67722E+02  1.67692E+02  1.64939E+02  1.62256E+02  1.59329E+02  1.55601E+02  1.54219E+02  1.50444E+02  1.48954E+02  1.49404E+02
   1.45979E+02  1.45117E+02  1.40312E+02  1.41022E+02  1.35525E+02  1.35231E+02  1.33618E+02  1.31245E+02  1.31131E+02  1.26703E+02
   1.27005E+02  1.25194E+02  1.22596E+02  1.19352E+02  1.16938E+02  1.12694E+02  1.14473E+02  1.11658E+02  1.07148E+02  1.05746E+02
   1.06004E+02  1.02288E+02  1.03356E+02  9.93497E+01  9.63872E+01  9.54674E+01  9.38846E+01  9.06680E+01  8.99843E+01  8.63123E+01
   8.53456E+01  8.31822E+01  8.22496E+01  8.08579E+01  7.78358E+01  7.61487E+01  7.40248E+01  7.25587E+01  7.09988E+01  6.87502E+01
   6.91761E+01  6.73968E+01  6.70557E+01  6.32915E+01  6.36950E+01  6.14308E+01  5.92803E+01  5.74360E+01  5.65681E+01  5.51255E+01
   5.47671E+01  5.60987E+01  5.38469E+01  5.33521E+01  5.16596E+01  5.06036E+01  4.69436E+01  4.74577E+01  4.95798E+01  4.62657E+01
   4.43758E+01  4.50883E+01  4.41972E+01  4.34791E+01  3.93529E+01  4.01252E+01  3.92659E+01  3.90529E+01  3.92728E+01  3.85152E+01
   3.45484E+01  3.38496E+01  3.33396E+01  3.33316E+01  3.29647E+01  3.42104E+01  3.44650E+01  3.33348E+01  3.06047E+01  3.00562E+01
   3.08251E+01  2.86387E+01  2.67608E+01  2.91743E+01  2.66661E+01  2.72557E+01  3.00583E+01  2.81429E+01  2.59849E+01  2.62956E+01
   2.56221E+01  2.69590E+01  2.60196E+01  2.57805E+01  2.26731E+01  2.23818E+01  2.18615E+01  2.31007E+01  2.15104E+01  2.27793E+01
   2.48987E+01  1.85785E+01  2.11972E+01  2.23201E+01  2.01304E+01  2.01786E+01  1.92955E+01  1.87626E+01  1.85774E+01  1.95549E+01
   2.01654E+01  2.11347E+01  1.96783E+01  1.86311E+01  1.65129E+01  1.69548E+01  2.01715E+01  1.76314E+01  1.79701E+01  1.79630E+01
   1.81676E+01  1.44216E+01  1.60940E+01  1.83929E+01  1.66963E+01  1.56336E+01  1.56122E+01  1.22901E+01  1.68572E+01  1.30849E+01
   1.49189E+01  1.30517E+01  1.65402E+01  1.71549E+01  1.44232E+01  1.73788E+01  1.34662E+01  1.33837E+01
 NY points of the fit to the data follow
   9.62732E+00  1.01095E+01  1.01709E+01  1.05341E+01  1.06038E+01  1.08912E+01  1.08909E+01  1.10443E+01  1.09364E+01  1.08010E+01
   1.07744E+01  1.06497E+01  1.07936E+01  1.08950E+01  1.11842E+01  1.11261E+01  1.13141E+01  1.08457E+01  1.11957E+01  1.08053E+01
   1.16916E+01  1.16647E+01  1.27701E+01  1.26051E+01  1.32300E+01  1.25886E+01  1.28015E+01  1.20545E+01  1.23076E+01  1.18207E+01
   1.23669E+01  1.22900E+01  1.28419E+01  1.26987E+01  1.31794E+01  1.32665E+01  1.35808E+01  1.40404E+01  1.39867E+01  1.46071E+01
   1.38339E+01  1.45243E+01  1.33413E+01  1.43932E+01  1.33165E+01  1.51071E+01  1.42202E+01  1.62900E+01  1.43141E+01  1.49127E+01
   1.23327E+01  1.22584E+01  1.04456E+01  1.08513E+01  1.16603E+01  1.26806E+01  1.32999E+01  1.34301E+01  1.32910E+01  1.25116E+01
   1.16845E+01  1.13805E+01  1.07685E+01  1.06056E+01  9.99197E+00  9.85421E+00  9.18859E+00  9.06022E+00  8.46132E+00  8.53860E+00
   8.25216E+00  8.74174E+00  8.54100E+00  8.98284E+00  8.70130E+00  9.08038E+00  8.70678E+00  8.99422E+00  8.53538E+00  8.72298E+00
   8.27578E+00  8.37343E+00  8.06366E+00  8.22243E+00  8.03446E+00  8.23299E+00  7.97859E+00  7.99505E+00  7.70186E+00  7.63567E+00
   7.40498E+00  7.46487E+00  7.28626E+00  7.51105E+00  7.32875E+00  7.72304E+00  7.54494E+00  8.07064E+00  7.92488E+00  8.63412E+00
   8.52147E+00  9.43016E+00  9.28441E+00  1.03188E+01  1.01297E+01  1.12880E+01  1.10372E+01  1.22412E+01  1.19124E+01  1.30258E+01
   1.24191E+01  1.31849E+01  1.23487E+01  1.28745E+01  1.19839E+01  1.23877E+01  1.15449E+01  1.18420E+01  1.10690E+01  1.10925E+01
   1.04285E+01  1.00942E+01  9.68281E+00  9.37907E+00  9.51829E+00  9.90008E+00  1.01788E+01  1.05513E+01  1.08355E+01  1.11920E+01
   1.14527E+01  1.17237E+01  1.19253E+01  1.20548E+01  1.21686E+01  1.21050E+01  1.21175E+01  1.18745E+01  1.17943E+01  1.14042E+01
   1.12462E+01  1.07480E+01  1.05115E+01  9.89114E+00  9.58373E+00  8.86707E+00  8.55785E+00  7.98369E+00  7.83257E+00  7.79454E+00
   7.77966E+00  7.77279E+00  7.77158E+00  7.77611E+00  7.77990E+00  7.79155E+00  7.79482E+00  7.80995E+00  7.81500E+00  7.83448E+00
   7.84380E+00  7.87352E+00  7.88765E+00  7.92774E+00  7.93938E+00  7.99114E+00  8.00743E+00  8.07370E+00  8.09767E+00  8.17503E+00
   8.21000E+00  8.29599E+00  8.34346E+00  8.44578E+00  8.50741E+00  8.61492E+00  8.65334E+00  8.74729E+00  8.79723E+00  8.85704E+00
   8.94796E+00  9.00640E+00  9.01036E+00  9.03351E+00  8.94598E+00  8.76251E+00  8.51532E+00  8.20037E+00  8.06590E+00  7.78632E+00
   7.89945E+00  7.72708E+00  7.83716E+00  7.81490E+00  8.25906E+00  8.01793E+00  8.11294E+00  7.30296E+00  6.88474E+00  5.82611E+00
   5.75176E+00  5.01047E+00  5.90662E+00  5.60510E+00  7.20430E+00  6.98745E+00  8.62102E+00  8.21310E+00  9.66268E+00  8.99993E+00
   1.05148E+01  9.57017E+00  1.11671E+01  1.01531E+01  1.21035E+01  1.12609E+01  1.33146E+01  1.25047E+01  1.44787E+01  1.33792E+01
   1.57657E+01  1.48927E+01  1.79415E+01  1.81997E+01  2.24747E+01  2.39087E+01  2.88212E+01  3.16870E+01  3.68830E+01  3.92912E+01
   4.21610E+01  4.19572E+01  4.04299E+01  3.86359E+01  3.73484E+01  3.53498E+01  3.44621E+01  3.26774E+01  3.24779E+01  3.09121E+01
   3.15349E+01  2.99453E+01  3.13788E+01  2.96581E+01  3.18360E+01  2.96373E+01  3.23541E+01  2.95386E+01  3.25890E+01  2.94522E+01
   3.28362E+01  2.99388E+01  3.38530E+01  3.15829E+01  3.59334E+01  3.40509E+01  3.79634E+01  3.57360E+01  3.76798E+01  3.59484E+01
   3.84615E+01  3.88639E+01  4.25539E+01  4.52328E+01  4.92690E+01  5.11386E+01  5.44950E+01  5.54715E+01  5.77215E+01  5.80129E+01
   5.98175E+01  6.01482E+01  6.21157E+01  6.36746E+01  6.63589E+01  6.90573E+01  7.22605E+01  7.58654E+01  7.94356E+01  8.33535E+01
   8.72144E+01  9.12432E+01  9.54814E+01  9.98974E+01  1.04513E+02  1.09276E+02  1.14218E+02  1.19286E+02  1.24486E+02  1.29759E+02
   1.35115E+02  1.40488E+02  1.45891E+02  1.51262E+02  1.56613E+02  1.61885E+02  1.67093E+02  1.72188E+02  1.77189E+02  1.82058E+02
   1.86805E+02  1.91403E+02  1.95862E+02  2.00153E+02  2.04278E+02  2.08212E+02  2.11944E+02  2.15448E+02  2.18708E+02  2.21691E+02
   2.24346E+02  2.26676E+02  2.28652E+02  2.30252E+02  2.31452E+02  2.32253E+02  2.32567E+02  2.32530E+02  2.31947E+02  2.31049E+02
   2.29629E+02  2.28001E+02  2.25903E+02  2.23776E+02  2.21200E+02  2.18772E+02  2.15907E+02  2.13334E+02  2.10369E+02  2.07840E+02
   2.04884E+02  2.02508E+02  1.99753E+02  1.97681E+02  1.95224E+02  1.93476E+02  1.91287E+02  1.89836E+02  1.87856E+02  1.86514E+02
   1.84686E+02  1.83388E+02  1.81643E+02  1.80376E+02  1.78619E+02  1.77323E+02  1.75486E+02  1.74100E+02  1.72132E+02  1.70686E+02
   1.68294E+02  1.66601E+02  1.63868E+02  1.62012E+02  1.59001E+02  1.57083E+02  1.53962E+02  1.52339E+02  1.49407E+02  1.47966E+02
   1.45192E+02  1.43848E+02  1.41196E+02  1.39796E+02  1.37264E+02  1.35743E+02  1.33415E+02  1.31849E+02  1.29747E+02  1.28215E+02
   1.25930E+02  1.24007E+02  1.21627E+02  1.19334E+02  1.16939E+02  1.14452E+02  1.12203E+02  1.10100E+02  1.08102E+02  1.06190E+02
   1.04350E+02  1.02567E+02  1.00823E+02  9.91019E+01  9.73864E+01  9.56608E+01  9.39122E+01  9.21306E+01  9.03104E+01  8.84498E+01
   8.65517E+01  8.46223E+01  8.26716E+01  8.07116E+01  7.87562E+01  7.68198E+01  7.49165E+01  7.30597E+01  7.12608E+01  6.95292E+01
   6.78718E+01  6.62931E+01  6.47947E+01  6.33763E+01  6.20351E+01  6.07666E+01  5.95650E+01  5.84236E+01  5.73347E+01  5.62907E+01
   5.52838E+01  5.43069E+01  5.33529E+01  5.24159E+01  5.14905E+01  5.05723E+01  4.96578E+01  4.87443E+01  4.78302E+01  4.69143E+01
   4.59966E+01  4.50772E+01  4.41571E+01  4.32377E+01  4.23205E+01  4.14074E+01  4.05005E+01  3.96020E+01  3.87138E+01  3.78382E+01
   3.69770E+01  3.61321E+01  3.53052E+01  3.44976E+01  3.37108E+01  3.29456E+01  3.22030E+01  3.14836E+01  3.07878E+01  3.01159E+01
   2.94679E+01  2.88439E+01  2.82437E+01  2.76668E+01  2.71130E+01  2.65817E+01  2.60724E+01  2.55844E+01  2.51172E+01  2.46699E+01
   2.42420E+01  2.38327E+01  2.34412E+01  2.30670E+01  2.27091E+01  2.23670E+01  2.20399E+01  2.17273E+01  2.14283E+01  2.11425E+01
   2.08692E+01  2.06078E+01  2.03578E+01  2.01187E+01  1.98899E+01  1.96709E+01  1.94614E+01  1.92608E+01  1.90688E+01  1.88849E+01
   1.87088E+01  1.85402E+01  1.83786E+01  1.82238E+01  1.80754E+01  1.79332E+01  1.77970E+01  1.76663E+01  1.75411E+01  1.74210E+01
   1.73058E+01  1.71954E+01  1.70895E+01  1.69879E+01  1.68905E+01  1.67971E+01  1.67075E+01  1.66216E+01  1.65392E+01  1.64603E+01
   1.63846E+01  1.63121E+01  1.62427E+01  1.61762E+01  1.61126E+01  1.60518E+01  1.59937E+01  1.59382E+01
 NY background values follow
    -5.490E-01   -5.345E-01   -5.199E-01   -5.054E-01   -4.908E-01   -4.763E-01   -4.617E-01   -4.472E-01   -4.326E-01   -4.181E-01
    -4.036E-01   -3.890E-01   -3.745E-01   -3.599E-01   -3.453E-01   -3.308E-01   -3.162E-01   -3.016E-01   -2.871E-01   -2.725E-01
    -2.579E-01   -2.433E-01   -2.287E-01   -2.141E-01   -1.995E-01   -1.848E-01   -1.702E-01   -1.555E-01   -1.409E-01   -1.262E-01
    -1.115E-01   -9.682E-02   -8.211E-02   -6.738E-02   -5.264E-02   -3.788E-02   -2.311E-02   -8.326E-03    6.477E-03    2.130E-02
     3.614E-02    5.099E-02    6.587E-02    8.076E-02    9.568E-02    1.106E-01    1.256E-01    1.405E-01    1.555E-01    1.706E-01
     1.856E-01    2.007E-01    2.158E-01    2.309E-01    2.460E-01    2.612E-01    2.764E-01    2.916E-01    3.069E-01    3.221E-01
     3.374E-01    3.528E-01    3.681E-01    3.835E-01    3.990E-01    4.144E-01    4.299E-01    4.454E-01    4.610E-01    4.766E-01
     4.922E-01    5.078E-01    5.235E-01    5.393E-01    5.550E-01    5.708E-01    5.867E-01    6.025E-01    6.184E-01    6.344E-01
     6.504E-01    6.664E-01    6.825E-01    6.986E-01    7.148E-01    7.310E-01    7.472E-01    7.635E-01    7.798E-01    7.962E-01
     8.126E-01    8.291E-01    8.456E-01    8.621E-01    8.787E-01    8.954E-01    9.121E-01    9.288E-01    9.456E-01    9.625E-01
     9.794E-01    9.963E-01    1.013E+00    1.030E+00    1.047E+00    1.065E+00    1.082E+00    1.099E+00    1.116E+00    1.134E+00
     1.151E+00    1.169E+00    1.186E+00    1.204E+00    1.221E+00    1.239E+00    1.257E+00    1.275E+00    1.293E+00    1.311E+00
     1.329E+00    1.347E+00    1.365E+00    1.383E+00    1.401E+00    1.420E+00    1.438E+00    1.457E+00    1.475E+00    1.494E+00
     1.512E+00    1.531E+00    1.550E+00    1.569E+00    1.588E+00    1.607E+00    1.626E+00    1.645E+00    1.664E+00    1.683E+00
     1.703E+00    1.722E+00    1.742E+00    1.761E+00    1.781E+00    1.801E+00    1.821E+00    1.840E+00    1.860E+00    1.880E+00
     1.901E+00    1.921E+00    1.941E+00    1.961E+00    1.982E+00    2.002E+00    2.023E+00    2.044E+00    2.064E+00    2.085E+00
     2.106E+00    2.127E+00    2.148E+00    2.169E+00    2.191E+00    2.212E+00    2.233E+00    2.255E+00    2.277E+00    2.298E+00
     2.320E+00    2.342E+00    2.364E+00    2.386E+00    2.408E+00    2.430E+00    2.452E+00    2.475E+00    2.497E+00    2.520E+00
     2.542E+00    2.565E+00    2.588E+00    2.611E+00    2.634E+00    2.657E+00    2.680E+00    2.703E+00    2.726E+00    2.749E+00
     2.773E+00    2.796E+00    2.820E+00    2.843E+00    2.867E+00    2.891E+00    2.914E+00    2.938E+00    2.962E+00    2.986E+00
     3.010E+00    3.035E+00    3.059E+00    3.083E+00    3.107E+00    3.132E+00    3.156E+00    3.181E+00    3.206E+00    3.230E+00
     3.255E+00    3.280E+00    3.305E+00    3.330E+00    3.355E+00    3.380E+00    3.405E+00    3.430E+00    3.455E+00    3.481E+00
     3.506E+00    3.531E+00    3.557E+00    3.582E+00    3.608E+00    3.634E+00    3.659E+00    3.685E+00    3.711E+00    3.737E+00
     3.763E+00    3.789E+00    3.815E+00    3.841E+00    3.867E+00    3.893E+00    3.919E+00    3.946E+00    3.972E+00    3.998E+00
     4.025E+00    4.051E+00    4.078E+00    4.104E+00    4.131E+00    4.157E+00    4.184E+00    4.211E+00    4.238E+00    4.265E+00
     4.291E+00    4.318E+00    4.345E+00    4.372E+00    4.399E+00    4.426E+00    4.454E+00    4.481E+00    4.508E+00    4.535E+00
     4.562E+00    4.590E+00    4.617E+00    4.644E+00    4.672E+00    4.699E+00    4.727E+00    4.754E+00    4.782E+00    4.810E+00
     4.837E+00    4.865E+00    4.892E+00    4.920E+00    4.948E+00    4.976E+00    5.004E+00    5.031E+00    5.059E+00    5.087E+00
     5.115E+00    5.143E+00    5.171E+00    5.199E+00    5.227E+00    5.255E+00    5.283E+00    5.311E+00    5.339E+00    5.367E+00
     5.396E+00    5.424E+00    5.452E+00    5.480E+00    5.508E+00    5.537E+00    5.565E+00    5.593E+00    5.622E+00    5.650E+00
     5.678E+00    5.707E+00    5.735E+00    5.763E+00    5.792E+00    5.820E+00    5.849E+00    5.877E+00    5.905E+00    5.934E+00
     5.962E+00    5.991E+00    6.019E+00    6.048E+00    6.076E+00    6.105E+00    6.133E+00    6.162E+00    6.190E+00    6.219E+00
     6.248E+00    6.276E+00    6.305E+00    6.333E+00    6.362E+00    6.390E+00    6.419E+00    6.448E+00    6.476E+00    6.505E+00
     6.533E+00    6.562E+00    6.591E+00    6.619E+00    6.648E+00    6.676E+00    6.705E+00    6.733E+00    6.762E+00    6.791E+00
     6.819E+00    6.848E+00    6.876E+00    6.905E+00    6.933E+00    6.962E+00    6.991E+00    7.019E+00    7.048E+00    7.076E+00
     7.105E+00    7.133E+00    7.162E+00    7.190E+00    7.219E+00    7.247E+00    7.276E+00    7.304E+00    7.333E+00    7.362E+00
     7.390E+00    7.419E+00    7.447E+00    7.476E+00    7.504E+00    7.533E+00    7.561E+00    7.590E+00    7.618E+00    7.646E+00
     7.675E+00    7.703E+00    7.732E+00    7.760E+00    7.789E+00    7.817E+00    7.846E+00    7.874E+00    7.902E+00    7.931E+00
     7.959E+00    7.988E+00    8.016E+00    8.045E+00    8.073E+00    8.101E+00    8.130E+00    8.158E+00    8.186E+00    8.215E+00
     8.243E+00    8.271E+00    8.300E+00    8.328E+00    8.356E+00    8.385E+00    8.413E+00    8.441E+00    8.470E+00    8.498E+00
     8.526E+00    8.554E+00    8.583E+00    8.611E+00    8.639E+00    8.667E+00    8.696E+00    8.724E+00    8.752E+00    8.780E+00
     8.808E+00    8.837E+00    8.865E+00    8.893E+00    8.921E+00    8.949E+00    8.977E+00    9.005E+00    9.034E+00    9.062E+00
     9.090E+00    9.118E+00    9.146E+00    9.174E+00    9.202E+00    9.230E+00    9.258E+00    9.286E+00    9.314E+00    9.342E+00
     9.370E+00    9.398E+00    9.426E+00    9.454E+00    9.482E+00    9.510E+00    9.538E+00    9.566E+00    9.594E+00    9.621E+00
     9.649E+00    9.677E+00    9.705E+00    9.733E+00    9.761E+00    9.788E+00    9.816E+00    9.844E+00    9.872E+00    9.899E+00
     9.927E+00    9.955E+00    9.983E+00    1.001E+01    1.004E+01    1.007E+01    1.009E+01    1.012E+01    1.015E+01    1.018E+01
     1.020E+01    1.023E+01    1.026E+01    1.029E+01    1.031E+01    1.034E+01    1.037E+01    1.040E+01    1.042E+01    1.045E+01
     1.048E+01    1.051E+01    1.053E+01    1.056E+01    1.059E+01    1.062E+01    1.064E+01    1.067E+01    1.070E+01    1.073E+01
     1.075E+01    1.078E+01    1.081E+01    1.083E+01    1.086E+01    1.089E+01    1.092E+01    1.094E+01    1.097E+01    1.100E+01
     1.102E+01    1.105E+01    1.108E+01    1.111E+01    1.113E+01    1.116E+01    1.119E+01    1.121E+01
 Ala      Conc. = 3.25E+02
