 LCModel (Version 6.3-1L) Copyright: S.W. Provencher.          Ref.: Magn. Reson. Med. 30:672-679 (1993).                
 Slice#1 Row#9 Col#9  K_02_press_1_raw_act
 36 lines in following concentration table = NCONC+1
    Conc.  %SD /Cr+PCr  Metabolite                                         
  215.881  36%   0.251 Ala                                                 
    0.000 999%   0.000 Asp                                                 
  347.163  43%   0.404 Cr                                                  
  512.991  31%   0.596 PCr                                                 
    0.000 999%   0.000 GABA                                                
    0.000 999%   0.000 Glc                                                 
   48.094 322% 5.6E-02 Gln                                                 
 1.10E+03  16%   1.274 Glu                                                 
  372.062   5%   0.433 GPC                                                 
    0.000 999%   0.000 PCh                                                 
  270.320  21%   0.314 GSH                                                 
  788.209  26%   0.916 Ins                                                 
    0.000 999%   0.000 Lac                                                 
 1.77E+03   5%   2.057 NAA                                                 
  561.942  15%   0.653 NAAG                                                
   23.180  95% 2.7E-02 Scyllo                                              
    0.000 999%   0.000 Tau                                                 
  244.605  37%   0.284 -CrCH2                                              
  372.062   5%   0.433 GPC+PCh                                             
 2.33E+03   3%   2.711 NAA+NAAG                                            
  860.155   6%   1.000 Cr+PCr                                              
 1.14E+03  20%   1.330 Glu+Gln                                             
    0.000 999%   0.000 Lip13a                                              
    0.000 999%   0.000 Lip13b                                              
    0.000 999%   0.000 Lip09                                               
 1.08E+03  19%   1.251 MM09                                                
 2.86E-03 999% 3.3E-06 Lip20                                               
 2.15E+03  17%   2.497 MM20                                                
  151.419  88%   0.176 MM12                                                
 1.53E+03  21%   1.776 MM14                                                
 1.09E+03  23%   1.266 MM17                                                
    0.000 999%   0.000 Lip13a+Lip13b                                       
 1.68E+03  23%   1.952 MM14+Lip13a+Lip13b+MM12                             
 1.08E+03  19%   1.251 MM09+Lip09                                          
 2.15E+03  17%   2.497 MM20+Lip20                                          
   6 lines in following misc. output table
  FWHM = 0.038 ppm    S/N =  13                                            
  Data shift = 0.008 ppm                                                   
  Ph: -42 deg     -13.5 deg/ppm                                            
  alphaB,S = 5.2E-01,   7.0E+01                                            
   14 spline knots.   Ns = 6(1)                                            
  ( 7) 3 infls.   ( 3) 1 extrs.                                            
  498 points on ppm-axis = NY
      4.000000     3.992357     3.984714     3.977070     3.969427     3.961784     3.954141     3.946497     3.938854     3.931211
      3.923568     3.915925     3.908281     3.900638     3.892995     3.885352     3.877708     3.870065     3.862422     3.854779
      3.847136     3.839492     3.831849     3.824206     3.816563     3.808919     3.801276     3.793633     3.785990     3.778347
      3.770703     3.763060     3.755417     3.747774     3.740130     3.732487     3.724844     3.717201     3.709558     3.701914
      3.694271     3.686628     3.678985     3.671341     3.663698     3.656055     3.648412     3.640769     3.633125     3.625482
      3.617839     3.610196     3.602552     3.594909     3.587266     3.579623     3.571980     3.564336     3.556693     3.549050
      3.541407     3.533763     3.526120     3.518477     3.510834     3.503191     3.495547     3.487904     3.480261     3.472618
      3.464974     3.457331     3.449688     3.442045     3.434402     3.426758     3.419115     3.411472     3.403829     3.396185
      3.388542     3.380899     3.373256     3.365613     3.357969     3.350326     3.342683     3.335040     3.327396     3.319753
      3.312110     3.304467     3.296824     3.289180     3.281537     3.273894     3.266251     3.258607     3.250964     3.243321
      3.235678     3.228034     3.220391     3.212748     3.205105     3.197462     3.189818     3.182175     3.174532     3.166889
      3.159245     3.151602     3.143959     3.136316     3.128673     3.121029     3.113386     3.105743     3.098100     3.090456
      3.082813     3.075170     3.067527     3.059884     3.052240     3.044597     3.036954     3.029311     3.021667     3.014024
      3.006381     2.998738     2.991095     2.983451     2.975808     2.968165     2.960522     2.952878     2.945235     2.937592
      2.929949     2.922306     2.914662     2.907019     2.899376     2.891733     2.884089     2.876446     2.868803     2.861160
      2.853517     2.845873     2.838230     2.830587     2.822944     2.815300     2.807657     2.800014     2.792371     2.784728
      2.777084     2.769441     2.761798     2.754155     2.746511     2.738868     2.731225     2.723582     2.715939     2.708295
      2.700652     2.693009     2.685366     2.677722     2.670079     2.662436     2.654793     2.647150     2.639506     2.631863
      2.624220     2.616577     2.608933     2.601290     2.593647     2.586004     2.578361     2.570717     2.563074     2.555431
      2.547788     2.540144     2.532501     2.524858     2.517215     2.509572     2.501928     2.494285     2.486642     2.478999
      2.471355     2.463712     2.456069     2.448426     2.440783     2.433139     2.425496     2.417853     2.410210     2.402566
      2.394923     2.387280     2.379637     2.371994     2.364350     2.356707     2.349064     2.341421     2.333777     2.326134
      2.318491     2.310848     2.303205     2.295561     2.287918     2.280275     2.272632     2.264988     2.257345     2.249702
      2.242059     2.234416     2.226772     2.219129     2.211486     2.203843     2.196199     2.188556     2.180913     2.173270
      2.165627     2.157983     2.150340     2.142697     2.135054     2.127410     2.119767     2.112124     2.104481     2.096838
      2.089194     2.081551     2.073908     2.066265     2.058621     2.050978     2.043335     2.035692     2.028049     2.020405
      2.012762     2.005119     1.997476     1.989833     1.982190     1.974546     1.966903     1.959260     1.951617     1.943974
      1.936331     1.928688     1.921045     1.913402     1.905759     1.898115     1.890472     1.882829     1.875186     1.867543
      1.859900     1.852257     1.844614     1.836971     1.829327     1.821684     1.814041     1.806398     1.798755     1.791112
      1.783469     1.775826     1.768183     1.760540     1.752896     1.745253     1.737610     1.729967     1.722324     1.714681
      1.707038     1.699395     1.691752     1.684108     1.676465     1.668822     1.661179     1.653536     1.645893     1.638250
      1.630607     1.622964     1.615321     1.607677     1.600034     1.592391     1.584748     1.577105     1.569462     1.561819
      1.554176     1.546533     1.538890     1.531246     1.523603     1.515960     1.508317     1.500674     1.493031     1.485388
      1.477745     1.470102     1.462458     1.454815     1.447172     1.439529     1.431886     1.424243     1.416600     1.408957
      1.401314     1.393671     1.386027     1.378384     1.370741     1.363098     1.355455     1.347812     1.340169     1.332526
      1.324883     1.317240     1.309596     1.301953     1.294310     1.286667     1.279024     1.271381     1.263738     1.256095
      1.248452     1.240808     1.233165     1.225522     1.217879     1.210236     1.202593     1.194950     1.187307     1.179664
      1.172021     1.164377     1.156734     1.149091     1.141448     1.133805     1.126162     1.118519     1.110876     1.103233
      1.095590     1.087946     1.080303     1.072660     1.065017     1.057374     1.049731     1.042088     1.034445     1.026802
      1.019158     1.011515     1.003872     0.996229     0.988586     0.980943     0.973300     0.965657     0.958014     0.950371
      0.942727     0.935084     0.927441     0.919798     0.912155     0.904512     0.896869     0.889226     0.881583     0.873940
      0.866296     0.858653     0.851010     0.843367     0.835724     0.828081     0.820438     0.812795     0.805152     0.797508
      0.789865     0.782222     0.774579     0.766936     0.759293     0.751650     0.744007     0.736364     0.728721     0.721077
      0.713434     0.705791     0.698148     0.690505     0.682862     0.675219     0.667576     0.659933     0.652290     0.644646
      0.637003     0.629360     0.621717     0.614074     0.606431     0.598788     0.591145     0.583502     0.575858     0.568215
      0.560572     0.552929     0.545286     0.537643     0.530000     0.522357     0.514714     0.507071     0.499427     0.491784
      0.484141     0.476498     0.468855     0.461212     0.453569     0.445925     0.438282     0.430639     0.422996     0.415353
      0.407710     0.400067     0.392424     0.384780     0.377137     0.369494     0.361851     0.354208     0.346565     0.338922
      0.331278     0.323635     0.315992     0.308349     0.300706     0.293063     0.285420     0.277777     0.270133     0.262490
      0.254847     0.247204     0.239561     0.231918     0.224275     0.216631     0.208988     0.201345
 NY phased data points follow
  -3.94793E+00 -4.23043E+00 -1.03625E+01 -2.02890E+00 -5.13119E+00 -8.32268E+00  3.71528E-01  3.68818E+00  6.73604E+00  7.62045E+00
   1.02579E+01  1.27767E+01  1.06668E+01  8.82176E+00 -1.23071E+00 -6.89379E-01 -3.05279E+00 -4.85849E+00 -7.76397E+00  2.57394E+00
  -4.86776E+00 -7.99616E+00  1.78365E+00 -4.50836E+00 -1.33331E+00 -4.58474E+00 -2.12924E+00 -2.38437E+00 -1.17067E-01  5.12876E-01
   3.12078E+00  3.41980E-01  5.64631E+00  4.47262E+00 -6.72374E-01  5.05255E+00 -2.87990E-01  2.32780E-01  2.76307E+00  1.72116E+00
   1.16338E+00  2.86197E+00  6.62645E+00  5.92215E+00  3.77614E+00  7.94407E+00  1.10558E+01  8.36714E+00  8.12393E+00  9.03953E+00
   1.17730E+00  4.33573E+00  4.39015E+00  4.49495E+00  3.99090E+00  2.57415E+00  6.50644E+00  7.95249E+00  2.91365E+00  3.69253E+00
   3.49685E+00  1.38117E+00 -4.95648E+00  1.61248E+00 -3.63579E+00 -2.89587E+00 -1.53328E+00 -4.93559E+00 -6.02855E+00 -3.40232E+00
   3.78798E-01 -2.47550E+00 -2.00520E+00  7.97992E-01  2.74742E-02  3.56483E+00  1.43489E-01 -8.87593E-01  1.64960E+00  7.96022E-02
  -1.34671E+00  1.68773E+00  5.96767E+00 -1.00486E+00  3.76971E-01  2.62937E+00 -4.49299E-01  3.39093E+00  6.94685E-01  2.71666E-01
   2.09512E+00  1.83115E+00  7.34046E+00  9.55624E-01  6.63979E+00  7.34880E+00  9.56460E+00  8.41624E+00  9.08099E+00  1.61827E+01
   2.37313E+01  3.49113E+01  5.15519E+01  4.98350E+01  3.60494E+01  2.88475E+01  1.54807E+01  1.59335E+01  8.46351E+00  2.45831E+00
   4.13453E+00  6.51349E+00  7.05987E+00  6.01382E+00  1.83537E+00  2.24677E+00  8.21613E+00  7.60210E+00  7.50652E+00  8.53708E+00
   1.05980E+01  1.55014E+01  1.46441E+01  1.29875E+01  2.19749E+01  2.49514E+01  3.62702E+01  4.18603E+01  4.12203E+01  3.10917E+01
   2.17539E+01  1.88923E+01  1.20371E+01  1.05202E+01  6.95682E+00  3.12990E+00  6.40782E+00  4.35931E+00  9.80857E+00  6.77075E+00
   6.69997E+00  9.87679E+00  8.78728E+00  7.17579E+00  7.68084E+00  5.45843E+00  5.63135E+00  9.43548E+00  5.11787E+00  3.60122E+00
   5.07448E+00  6.62209E+00  2.67373E+00  2.08788E+00  2.43336E+00  3.83047E+00  3.84439E+00  5.11550E+00  1.31637E+01  7.75387E+00
   7.10809E+00  2.34989E+00  2.73878E+00 -9.02528E-02  1.87890E+00  5.97874E+00  6.67899E+00  3.06511E-01 -2.35435E+00 -4.97632E-01
  -3.48523E-01 -6.76570E-01  2.55135E-01 -3.17438E-01 -7.39869E+00 -5.26250E+00 -6.17532E+00 -1.45651E+00 -3.26451E+00 -5.57835E+00
  -3.67258E+00 -7.64683E+00 -1.81124E+00 -1.27051E+00 -4.67661E-01 -4.38387E-01  5.58589E+00  6.26503E+00  6.04391E+00  4.70291E+00
   5.58285E+00  5.33670E+00  4.77546E+00  7.20011E+00  4.91865E+00  4.72266E+00  1.09370E+00  1.86286E+00  2.16178E+00  1.24959E+00
  -2.34001E+00  6.82370E-01  5.89194E+00  7.10728E+00  1.18211E+01  9.19785E+00  1.12828E+01  1.21453E+01  9.53750E+00  1.11210E+01
   9.20426E+00  1.33614E+01  1.13476E+01  1.59401E+01  1.64190E+01  1.56217E+01  2.15345E+01  2.08820E+01  1.49395E+01  8.33440E+00
   7.56164E+00  7.41674E+00  2.16899E+00  4.38253E+00  5.24012E+00  1.17627E+01  1.01223E+01  1.30148E+01  1.94411E+01  1.62639E+01
   1.31874E+01  1.28705E+01  1.15098E+01  1.18173E+01  1.33873E+01  1.42320E+01  1.68089E+01  1.52618E+01  1.69618E+01  1.14507E+01
   1.62909E+01  1.21245E+01  1.08521E+01  7.29196E+00  1.36221E+01  1.31557E+01  1.55616E+01  1.67466E+01  2.05280E+01  1.80023E+01
   2.02799E+01  2.56049E+01  2.58846E+01  3.43506E+01  3.85847E+01  5.27846E+01  5.72027E+01  5.69203E+01  5.89449E+01  7.60605E+01
   9.79838E+01  9.89999E+01  8.18871E+01  6.39804E+01  4.52546E+01  2.73662E+01  1.35280E+01  1.09006E+01  1.27267E+01  1.07014E+01
   1.17968E+01  1.29053E+01  1.47864E+01  1.72612E+01  1.30028E+01  1.32897E+01  1.17977E+01  1.23630E+01  1.37945E+01  1.20154E+01
   1.23742E+01  1.76503E+01  1.01608E+01  1.36908E+01  5.50575E+00  1.22011E+01  1.03364E+01  1.03257E+01  1.11337E+01  1.07246E+01
   1.31663E+01  1.41955E+01  1.24539E+01  1.20035E+01  1.11349E+01  1.35742E+01  1.15285E+01  1.82162E+01  1.29487E+01  1.00026E+01
   1.50597E+01  1.56445E+01  1.65608E+01  1.51433E+01  1.65319E+01  1.45307E+01  1.48768E+01  1.90924E+01  1.85626E+01  1.54745E+01
   1.97714E+01  1.66986E+01  1.27201E+01  1.53996E+01  1.47430E+01  1.66461E+01  1.43010E+01  1.75617E+01  1.58378E+01  1.81198E+01
   2.09769E+01  2.08347E+01  1.78600E+01  1.94206E+01  2.09996E+01  1.98221E+01  1.81533E+01  2.01221E+01  1.20724E+01  1.51655E+01
   1.52578E+01  1.30106E+01  9.57302E+00  1.44227E+01  1.10887E+01  1.04848E+01  1.40952E+01  1.25363E+01  1.07720E+01  1.33907E+01
   1.66633E+01  1.41014E+01  1.31007E+01  1.21957E+01  1.57769E+01  1.60341E+01  1.69042E+01  7.64076E+00  1.44435E+01  8.69813E+00
   7.66022E+00  1.20522E+01  1.00709E+01  7.88504E+00  1.08150E+01  4.87360E+00  3.41214E+00  9.59205E+00  5.16304E+00  5.65645E+00
   5.25614E+00  3.64742E+00  4.44660E+00  5.45909E+00  7.69132E+00  6.55817E+00  2.68694E+00  7.63733E+00  6.81355E+00  7.39080E+00
   8.17527E+00  5.56550E+00  7.11060E+00  7.59001E+00  1.11017E+00  9.67739E+00  7.75999E+00  2.67598E+00  1.10008E+01  5.33296E+00
   6.41367E+00  1.08498E+01  8.59419E+00  4.20547E+00  4.45918E+00  3.18074E+00  1.27769E+01  8.96858E+00  9.86331E+00  4.17365E+00
   7.72430E+00  1.05964E+01  1.04222E+01  1.07804E+01  9.97982E+00  1.19508E+01  1.40168E+01  1.05765E+01  1.82911E+01  9.23948E+00
   1.28366E+01  1.53248E+01  1.11744E+01  1.27573E+01  1.46260E+01  1.57649E+01  1.35593E+01  1.69857E+01  1.50551E+01  1.54230E+01
   1.31032E+01  1.51761E+01  1.39575E+01  1.36721E+01  1.53975E+01  1.33253E+01  1.66447E+01  1.33162E+01  1.12435E+01  1.31219E+01
   1.35891E+01  1.34149E+01  1.13074E+01  9.27606E+00  1.95594E+01  1.24813E+01  8.79488E+00  1.27271E+01  6.77992E+00  5.14424E+00
   8.84544E+00  1.04115E+01  9.39358E+00  1.29805E+01  1.27002E+01  1.14604E+01  1.80579E+01  1.15496E+01  1.24913E+01  1.55616E+01
   1.31082E+01  1.22053E+01  1.04016E+01  1.22433E+01  1.23492E+01  1.11890E+01  1.29913E+01  1.13877E+01  9.52688E+00  6.52401E+00
   1.12175E+01  1.03229E+01  7.30113E+00  9.70864E+00  1.18794E+01  1.14768E+01  1.29429E+01  1.05063E+01  8.62493E+00  9.16205E+00
   9.45139E+00  7.84343E+00  1.21870E+01  1.27203E+01  1.23168E+01  7.56742E+00  1.17454E+01  1.18403E+01  1.41088E+01  7.44900E+00
   1.19537E+01  8.34317E+00  9.89835E+00  9.53864E+00  4.64603E+00  8.80696E+00  7.49459E+00  1.23758E+01  8.72665E+00  6.39060E+00
   1.09572E+01  9.72732E+00  8.87558E+00  9.72259E+00  1.20656E+01  4.65470E+00  9.57483E+00  8.46250E+00  1.24079E+01  9.67200E+00
   9.46644E+00  9.05756E+00  1.00573E+01  1.04552E+01  9.83803E+00  8.81501E+00  1.13781E+01  7.34800E+00
 NY points of the fit to the data follow
  -6.47019E+00 -6.39997E+00 -6.00536E+00 -5.12749E+00 -3.89091E+00 -2.22087E+00 -5.09957E-02  2.55475E+00  5.71654E+00  9.00257E+00
   1.13612E+01  1.17096E+01  9.77393E+00  6.49091E+00  3.18792E+00  6.42492E-01 -1.03075E+00 -2.04477E+00 -2.54313E+00 -2.68106E+00
  -2.63558E+00 -2.52618E+00 -2.53009E+00 -2.48116E+00 -2.02133E+00 -1.60057E+00 -1.60172E+00 -1.42582E+00 -2.28354E-01  1.96078E+00
   4.03639E+00  5.23192E+00  5.62175E+00  5.38615E+00  4.48106E+00  2.92336E+00  1.22708E+00 -1.63152E-01 -1.28533E+00 -1.85856E+00
  -1.47710E+00 -3.16720E-01  9.61630E-01  2.05087E+00  3.33349E+00  5.05649E+00  6.73396E+00  7.46923E+00  6.81849E+00  5.14431E+00
   3.12368E+00  1.28578E+00  2.96384E-02 -4.39819E-01 -3.12126E-01  9.00282E-02  5.85896E-01  1.19245E+00  1.90769E+00  2.50941E+00
   2.70855E+00  2.40266E+00  1.70448E+00  8.98119E-01  2.59870E-01  4.40976E-02  2.79192E-01  7.58324E-01  1.30797E+00  1.83861E+00
   2.31107E+00  2.63511E+00  2.70691E+00  2.55180E+00  2.30168E+00  2.07731E+00  1.93069E+00  1.86450E+00  1.87919E+00  1.94400E+00
   2.03061E+00  2.08840E+00  2.07268E+00  2.07513E+00  2.12492E+00  2.09414E+00  1.82544E+00  1.36036E+00  9.64516E-01  8.81639E-01
   1.17257E+00  1.68941E+00  2.29925E+00  2.91747E+00  3.46829E+00  4.11041E+00  6.07905E+00  9.36645E+00  1.22807E+01  1.66957E+01
   2.53160E+01  3.72431E+01  4.67370E+01  4.78884E+01  4.06133E+01  2.96126E+01  1.92104E+01  1.12713E+01  6.30110E+00  4.33049E+00
   4.08244E+00  4.05959E+00  4.09206E+00  4.16273E+00  4.24473E+00  4.34036E+00  4.45833E+00  4.60170E+00  4.78885E+00  5.11575E+00
   6.07757E+00  8.67959E+00  1.16281E+01  1.46303E+01  1.97376E+01  2.80619E+01  3.71058E+01  4.17882E+01  3.93802E+01  3.19087E+01
   2.33106E+01  1.61733E+01  1.11983E+01  8.36157E+00  7.06164E+00  6.02723E+00  5.04310E+00  4.44129E+00  4.39927E+00  4.89469E+00
   5.69809E+00  6.44627E+00  6.82506E+00  6.78465E+00  6.46483E+00  6.04250E+00  5.66374E+00  5.37981E+00  5.15957E+00  4.98923E+00
   4.82565E+00  4.62861E+00  4.39081E+00  4.15921E+00  4.03276E+00  4.03841E+00  4.16732E+00  4.37205E+00  4.38207E+00  4.00336E+00
   3.22797E+00  2.40059E+00  2.14196E+00  2.59069E+00  3.29923E+00  3.68372E+00  3.40929E+00  2.64401E+00  1.79542E+00  1.19291E+00
   9.61181E-01  9.57277E-01  1.08052E+00  9.63350E-01  4.20509E-01 -2.91413E-01 -6.46038E-01 -1.86790E-01  7.30178E-01  1.29624E+00
   1.22893E+00  9.04892E-01  9.21177E-01  1.48062E+00  2.12306E+00  2.56735E+00  2.97127E+00  3.74323E+00  5.11145E+00  6.85416E+00
   8.46153E+00  9.45367E+00  9.53400E+00  8.92911E+00  8.10606E+00  7.40027E+00  6.93163E+00  6.68408E+00  6.82247E+00  7.25009E+00
   7.75175E+00  8.29537E+00  8.98661E+00  9.84352E+00  1.03932E+01  1.02265E+01  9.36211E+00  7.99663E+00  6.55332E+00  5.49839E+00
   5.15631E+00  5.39073E+00  6.03856E+00  7.55436E+00  1.00955E+01  1.27861E+01  1.40686E+01  1.31415E+01  1.07125E+01  7.73093E+00
   4.56578E+00  1.82598E+00  6.05865E-01  1.70896E+00  4.67464E+00  8.15256E+00  1.10855E+01  1.30988E+01  1.41139E+01  1.41253E+01
   1.34351E+01  1.27293E+01  1.25963E+01  1.30999E+01  1.39851E+01  1.48856E+01  1.55329E+01  1.56220E+01  1.50346E+01  1.39489E+01
   1.27940E+01  1.20089E+01  1.20182E+01  1.30194E+01  1.47689E+01  1.66770E+01  1.81821E+01  1.90581E+01  1.94129E+01  1.99900E+01
   2.11875E+01  2.25009E+01  2.49548E+01  3.00669E+01  3.90577E+01  5.04624E+01  5.65155E+01  5.87377E+01  6.52653E+01  7.93581E+01
   9.34736E+01  9.58322E+01  8.36540E+01  6.40535E+01  4.47119E+01  2.94668E+01  1.92497E+01  1.44904E+01  1.35515E+01  1.31558E+01
   1.28058E+01  1.25886E+01  1.25087E+01  1.25163E+01  1.24914E+01  1.23059E+01  1.19883E+01  1.16617E+01  1.13847E+01  1.11631E+01
   1.10218E+01  1.09898E+01  1.10374E+01  1.10873E+01  1.10937E+01  1.10743E+01  1.10527E+01  1.10299E+01  1.10238E+01  1.10824E+01
   1.12452E+01  1.15032E+01  1.18079E+01  1.21136E+01  1.24101E+01  1.26941E+01  1.29617E+01  1.32200E+01  1.34961E+01  1.38120E+01
   1.41650E+01  1.45350E+01  1.48993E+01  1.52397E+01  1.55415E+01  1.57945E+01  1.59986E+01  1.61589E+01  1.62774E+01  1.63571E+01
   1.64014E+01  1.64149E+01  1.64034E+01  1.63749E+01  1.63381E+01  1.63022E+01  1.62761E+01  1.62691E+01  1.62927E+01  1.63617E+01
   1.65037E+01  1.67730E+01  1.70791E+01  1.72657E+01  1.75141E+01  1.78801E+01  1.80273E+01  1.74429E+01  1.59821E+01  1.42183E+01
   1.29212E+01  1.21505E+01  1.17950E+01  1.20178E+01  1.30295E+01  1.45510E+01  1.58536E+01  1.64225E+01  1.62288E+01  1.55497E+01
   1.46563E+01  1.37264E+01  1.29218E+01  1.23057E+01  1.17839E+01  1.13127E+01  1.08829E+01  1.04904E+01  1.01325E+01  9.80741E+00
   9.51369E+00  9.25041E+00  9.01648E+00  8.81039E+00  8.62995E+00  8.47286E+00  8.33694E+00  8.22042E+00  8.12139E+00  8.03770E+00
   7.96697E+00  7.90722E+00  7.85694E+00  7.81506E+00  7.78041E+00  7.75175E+00  7.72792E+00  7.70836E+00  7.69299E+00  7.68200E+00
   7.67542E+00  7.67322E+00  7.67554E+00  7.68309E+00  7.69680E+00  7.71766E+00  7.74630E+00  7.78341E+00  7.82987E+00  7.88709E+00
   7.95649E+00  8.03940E+00  8.13687E+00  8.25015E+00  8.38077E+00  8.53063E+00  8.70141E+00  8.89458E+00  9.11119E+00  9.35240E+00
   9.61923E+00  9.91245E+00  1.02319E+01  1.05767E+01  1.09447E+01  1.13334E+01  1.17393E+01  1.21578E+01  1.25829E+01  1.30075E+01
   1.34238E+01  1.38235E+01  1.41983E+01  1.45397E+01  1.48392E+01  1.50891E+01  1.52832E+01  1.54168E+01  1.54870E+01  1.54928E+01
   1.54346E+01  1.53152E+01  1.51390E+01  1.49126E+01  1.46433E+01  1.43392E+01  1.40087E+01  1.36606E+01  1.33036E+01  1.29457E+01
   1.25940E+01  1.22542E+01  1.19312E+01  1.16287E+01  1.13496E+01  1.10956E+01  1.08672E+01  1.06642E+01  1.04856E+01  1.03305E+01
   1.01974E+01  1.00847E+01  9.99010E+00  9.91172E+00  9.84764E+00  9.79634E+00  9.75628E+00  9.72591E+00  9.70364E+00  9.68821E+00
   9.67866E+00  9.67430E+00  9.67431E+00  9.67789E+00  9.68418E+00  9.69271E+00  9.70316E+00  9.71531E+00  9.72871E+00  9.74291E+00
   9.75748E+00  9.77231E+00  9.78735E+00  9.80253E+00  9.81758E+00  9.83229E+00  9.84653E+00  9.86045E+00  9.87412E+00  9.88753E+00
   9.90043E+00  9.91272E+00  9.92442E+00  9.93574E+00  9.94673E+00  9.95735E+00  9.96735E+00  9.97675E+00  9.98566E+00  9.99429E+00
   1.00026E+01  1.00106E+01  1.00180E+01  1.00249E+01  1.00316E+01  1.00381E+01  1.00444E+01  1.00504E+01  1.00560E+01  1.00614E+01
   1.00667E+01  1.00720E+01  1.00772E+01  1.00823E+01  1.00871E+01  1.00920E+01  1.00971E+01  1.01024E+01  1.01077E+01  1.01130E+01
   1.01184E+01  1.01241E+01  1.01303E+01  1.01368E+01  1.01435E+01  1.01505E+01  1.01579E+01  1.01660E+01
 NY background values follow
    -8.367E+00   -8.242E+00   -8.116E+00   -7.990E+00   -7.864E+00   -7.737E+00   -7.611E+00   -7.484E+00   -7.358E+00   -7.231E+00
    -7.104E+00   -6.978E+00   -6.851E+00   -6.724E+00   -6.598E+00   -6.472E+00   -6.345E+00   -6.219E+00   -6.094E+00   -5.968E+00
    -5.843E+00   -5.717E+00   -5.593E+00   -5.468E+00   -5.344E+00   -5.220E+00   -5.097E+00   -4.973E+00   -4.851E+00   -4.729E+00
    -4.607E+00   -4.486E+00   -4.365E+00   -4.245E+00   -4.126E+00   -4.007E+00   -3.889E+00   -3.771E+00   -3.654E+00   -3.538E+00
    -3.423E+00   -3.308E+00   -3.194E+00   -3.081E+00   -2.969E+00   -2.857E+00   -2.747E+00   -2.637E+00   -2.529E+00   -2.421E+00
    -2.314E+00   -2.207E+00   -2.102E+00   -1.998E+00   -1.894E+00   -1.792E+00   -1.690E+00   -1.589E+00   -1.489E+00   -1.389E+00
    -1.291E+00   -1.193E+00   -1.096E+00   -1.001E+00   -9.054E-01   -8.111E-01   -7.176E-01   -6.250E-01   -5.331E-01   -4.421E-01
    -3.519E-01   -2.624E-01   -1.738E-01   -8.598E-02    1.048E-03    8.729E-02    1.727E-01    2.574E-01    3.413E-01    4.244E-01
     5.067E-01    5.883E-01    6.691E-01    7.491E-01    8.284E-01    9.069E-01    9.847E-01    1.062E+00    1.138E+00    1.213E+00
     1.288E+00    1.362E+00    1.436E+00    1.508E+00    1.580E+00    1.651E+00    1.721E+00    1.790E+00    1.859E+00    1.926E+00
     1.993E+00    2.059E+00    2.123E+00    2.187E+00    2.250E+00    2.312E+00    2.373E+00    2.433E+00    2.492E+00    2.550E+00
     2.607E+00    2.663E+00    2.717E+00    2.771E+00    2.823E+00    2.875E+00    2.925E+00    2.974E+00    3.021E+00    3.068E+00
     3.113E+00    3.157E+00    3.200E+00    3.241E+00    3.281E+00    3.320E+00    3.358E+00    3.394E+00    3.429E+00    3.462E+00
     3.494E+00    3.524E+00    3.554E+00    3.581E+00    3.607E+00    3.632E+00    3.655E+00    3.677E+00    3.697E+00    3.716E+00
     3.734E+00    3.750E+00    3.765E+00    3.780E+00    3.793E+00    3.806E+00    3.818E+00    3.829E+00    3.839E+00    3.849E+00
     3.859E+00    3.868E+00    3.877E+00    3.886E+00    3.894E+00    3.903E+00    3.911E+00    3.920E+00    3.928E+00    3.937E+00
     3.947E+00    3.957E+00    3.967E+00    3.978E+00    3.989E+00    4.001E+00    4.014E+00    4.028E+00    4.043E+00    4.059E+00
     4.076E+00    4.095E+00    4.114E+00    4.135E+00    4.158E+00    4.182E+00    4.207E+00    4.235E+00    4.264E+00    4.295E+00
     4.327E+00    4.362E+00    4.399E+00    4.438E+00    4.479E+00    4.521E+00    4.565E+00    4.611E+00    4.659E+00    4.708E+00
     4.758E+00    4.810E+00    4.863E+00    4.918E+00    4.973E+00    5.030E+00    5.087E+00    5.145E+00    5.205E+00    5.265E+00
     5.325E+00    5.386E+00    5.448E+00    5.510E+00    5.573E+00    5.636E+00    5.699E+00    5.762E+00    5.825E+00    5.888E+00
     5.952E+00    6.015E+00    6.077E+00    6.140E+00    6.202E+00    6.263E+00    6.324E+00    6.385E+00    6.444E+00    6.503E+00
     6.561E+00    6.619E+00    6.675E+00    6.730E+00    6.784E+00    6.836E+00    6.888E+00    6.938E+00    6.986E+00    7.033E+00
     7.079E+00    7.124E+00    7.167E+00    7.209E+00    7.250E+00    7.289E+00    7.328E+00    7.364E+00    7.400E+00    7.435E+00
     7.468E+00    7.500E+00    7.531E+00    7.560E+00    7.589E+00    7.616E+00    7.642E+00    7.667E+00    7.691E+00    7.714E+00
     7.736E+00    7.757E+00    7.776E+00    7.795E+00    7.812E+00    7.829E+00    7.844E+00    7.859E+00    7.872E+00    7.885E+00
     7.897E+00    7.907E+00    7.917E+00    7.926E+00    7.934E+00    7.940E+00    7.947E+00    7.952E+00    7.956E+00    7.960E+00
     7.962E+00    7.964E+00    7.965E+00    7.965E+00    7.965E+00    7.963E+00    7.961E+00    7.958E+00    7.954E+00    7.950E+00
     7.944E+00    7.938E+00    7.931E+00    7.923E+00    7.915E+00    7.906E+00    7.896E+00    7.885E+00    7.873E+00    7.861E+00
     7.848E+00    7.834E+00    7.820E+00    7.804E+00    7.788E+00    7.772E+00    7.754E+00    7.736E+00    7.717E+00    7.697E+00
     7.677E+00    7.656E+00    7.634E+00    7.611E+00    7.588E+00    7.564E+00    7.539E+00    7.514E+00    7.488E+00    7.461E+00
     7.434E+00    7.406E+00    7.377E+00    7.347E+00    7.317E+00    7.286E+00    7.255E+00    7.223E+00    7.190E+00    7.156E+00
     7.123E+00    7.088E+00    7.054E+00    7.018E+00    6.983E+00    6.948E+00    6.912E+00    6.876E+00    6.840E+00    6.804E+00
     6.769E+00    6.733E+00    6.697E+00    6.662E+00    6.627E+00    6.593E+00    6.558E+00    6.525E+00    6.492E+00    6.459E+00
     6.427E+00    6.396E+00    6.365E+00    6.336E+00    6.307E+00    6.279E+00    6.252E+00    6.226E+00    6.202E+00    6.178E+00
     6.156E+00    6.135E+00    6.115E+00    6.097E+00    6.080E+00    6.065E+00    6.051E+00    6.039E+00    6.029E+00    6.020E+00
     6.013E+00    6.008E+00    6.005E+00    6.004E+00    6.004E+00    6.007E+00    6.011E+00    6.017E+00    6.025E+00    6.035E+00
     6.046E+00    6.059E+00    6.074E+00    6.090E+00    6.108E+00    6.128E+00    6.149E+00    6.171E+00    6.195E+00    6.220E+00
     6.247E+00    6.275E+00    6.304E+00    6.335E+00    6.367E+00    6.400E+00    6.434E+00    6.469E+00    6.506E+00    6.544E+00
     6.583E+00    6.622E+00    6.663E+00    6.705E+00    6.748E+00    6.791E+00    6.836E+00    6.881E+00    6.928E+00    6.975E+00
     7.022E+00    7.071E+00    7.120E+00    7.170E+00    7.220E+00    7.271E+00    7.323E+00    7.375E+00    7.428E+00    7.481E+00
     7.534E+00    7.588E+00    7.642E+00    7.697E+00    7.751E+00    7.806E+00    7.861E+00    7.917E+00    7.972E+00    8.027E+00
     8.083E+00    8.138E+00    8.193E+00    8.248E+00    8.303E+00    8.357E+00    8.412E+00    8.466E+00    8.520E+00    8.573E+00
     8.626E+00    8.678E+00    8.730E+00    8.781E+00    8.832E+00    8.882E+00    8.932E+00    8.980E+00    9.028E+00    9.075E+00
     9.121E+00    9.167E+00    9.211E+00    9.255E+00    9.297E+00    9.338E+00    9.378E+00    9.418E+00    9.455E+00    9.492E+00
     9.527E+00    9.561E+00    9.594E+00    9.625E+00    9.655E+00    9.684E+00    9.711E+00    9.738E+00    9.763E+00    9.786E+00
     9.809E+00    9.831E+00    9.851E+00    9.871E+00    9.889E+00    9.907E+00    9.924E+00    9.940E+00    9.955E+00    9.969E+00
     9.983E+00    9.996E+00    1.001E+01    1.002E+01    1.003E+01    1.004E+01    1.005E+01    1.006E+01    1.007E+01    1.008E+01
     1.009E+01    1.010E+01    1.010E+01    1.011E+01    1.012E+01    1.013E+01    1.013E+01    1.014E+01    1.015E+01    1.015E+01
     1.016E+01    1.017E+01    1.018E+01    1.018E+01    1.019E+01    1.020E+01    1.021E+01    1.022E+01
 Ala      Conc. = 2.16E+02
