 LCModel (Version 6.3-1L) Copyright: S.W. Provencher.          Ref.: Magn. Reson. Med. 30:672-679 (1993).                
 Slice#1 Row#11 Col#13  K_02_press_1_raw_act
 36 lines in following concentration table = NCONC+1
    Conc.  %SD /Cr+PCr  Metabolite                                         
 1.00E+04  11%   0.000 Ala                                                 
 6.25E-02 999%   0.000 Asp                                                 
    0.000 999%   0.000 Cr                                                  
    0.000 999%   0.000 PCr                                                 
    0.000 999%   0.000 GABA                                                
    0.310 999%   0.000 Glc                                                 
    0.000 999%   0.000 Gln                                                 
    0.000 999%   0.000 Glu                                                 
    0.000 999%   0.000 GPC                                                 
    0.000 999%   0.000 PCh                                                 
  159.738  51%   0.000 GSH                                                 
  506.500  40%   0.000 Ins                                                 
 7.16E+03  16%   0.000 Lac                                                 
    0.000 999%   0.000 NAA                                                 
    0.000 999%   0.000 NAAG                                                
    0.515 430%   0.000 Scyllo                                              
    0.519 999%   0.000 Tau                                                 
    8.503 386%   0.000 -CrCH2                                              
    0.000 999%   0.000 GPC+PCh                                             
    0.000 999%   0.000 NAA+NAAG                                            
    0.000 999%   0.000 Cr+PCr                                              
    0.000 999%   0.000 Glu+Gln                                             
    0.000 999%   0.000 Lip13a                                              
  548.147  18%   0.000 Lip13b                                              
  550.965  40%   0.000 Lip09                                               
 3.87E+03   5%   0.000 MM09                                                
    0.000 999%   0.000 Lip20                                               
 5.81E+03   5%   0.000 MM20                                                
 1.16E+03   6%   0.000 MM12                                                
 2.91E+03   5%   0.000 MM14                                                
 1.45E+03   6%   0.000 MM17                                                
  548.147  18%   0.000 Lip13a+Lip13b                                       
 4.62E+03   6%   0.000 MM14+Lip13a+Lip13b+MM12                             
 4.43E+03   7%   0.000 MM09+Lip09                                          
 5.81E+03   5%   0.000 MM20+Lip20                                          
   6 lines in following misc. output table
  FWHM = 0.168 ppm    S/N =  11                                            
  Data shift = 0.321 ppm                                                   
  Ph: 161 deg      42.7 deg/ppm                                            
  alphaB,S = 3.3E-01,   7.4E+02                                            
   10 spline knots.   Ns = 9(2)                                            
  (11) 2 infls.   ( 1) 1 extrs.                                            
  498 points on ppm-axis = NY
      4.000000     3.992357     3.984714     3.977070     3.969427     3.961784     3.954141     3.946497     3.938854     3.931211
      3.923568     3.915925     3.908281     3.900638     3.892995     3.885352     3.877708     3.870065     3.862422     3.854779
      3.847136     3.839492     3.831849     3.824206     3.816563     3.808919     3.801276     3.793633     3.785990     3.778347
      3.770703     3.763060     3.755417     3.747774     3.740130     3.732487     3.724844     3.717201     3.709558     3.701914
      3.694271     3.686628     3.678985     3.671341     3.663698     3.656055     3.648412     3.640769     3.633125     3.625482
      3.617839     3.610196     3.602552     3.594909     3.587266     3.579623     3.571980     3.564336     3.556693     3.549050
      3.541407     3.533763     3.526120     3.518477     3.510834     3.503191     3.495547     3.487904     3.480261     3.472618
      3.464974     3.457331     3.449688     3.442045     3.434402     3.426758     3.419115     3.411472     3.403829     3.396185
      3.388542     3.380899     3.373256     3.365613     3.357969     3.350326     3.342683     3.335040     3.327396     3.319753
      3.312110     3.304467     3.296824     3.289180     3.281537     3.273894     3.266251     3.258607     3.250964     3.243321
      3.235678     3.228034     3.220391     3.212748     3.205105     3.197462     3.189818     3.182175     3.174532     3.166889
      3.159245     3.151602     3.143959     3.136316     3.128673     3.121029     3.113386     3.105743     3.098100     3.090456
      3.082813     3.075170     3.067527     3.059884     3.052240     3.044597     3.036954     3.029311     3.021667     3.014024
      3.006381     2.998738     2.991095     2.983451     2.975808     2.968165     2.960522     2.952878     2.945235     2.937592
      2.929949     2.922306     2.914662     2.907019     2.899376     2.891733     2.884089     2.876446     2.868803     2.861160
      2.853517     2.845873     2.838230     2.830587     2.822944     2.815300     2.807657     2.800014     2.792371     2.784728
      2.777084     2.769441     2.761798     2.754155     2.746511     2.738868     2.731225     2.723582     2.715939     2.708295
      2.700652     2.693009     2.685366     2.677722     2.670079     2.662436     2.654793     2.647150     2.639506     2.631863
      2.624220     2.616577     2.608933     2.601290     2.593647     2.586004     2.578361     2.570717     2.563074     2.555431
      2.547788     2.540144     2.532501     2.524858     2.517215     2.509572     2.501928     2.494285     2.486642     2.478999
      2.471355     2.463712     2.456069     2.448426     2.440783     2.433139     2.425496     2.417853     2.410210     2.402566
      2.394923     2.387280     2.379637     2.371994     2.364350     2.356707     2.349064     2.341421     2.333777     2.326134
      2.318491     2.310848     2.303205     2.295561     2.287918     2.280275     2.272632     2.264988     2.257345     2.249702
      2.242059     2.234416     2.226772     2.219129     2.211486     2.203843     2.196199     2.188556     2.180913     2.173270
      2.165627     2.157983     2.150340     2.142697     2.135054     2.127410     2.119767     2.112124     2.104481     2.096838
      2.089194     2.081551     2.073908     2.066265     2.058621     2.050978     2.043335     2.035692     2.028049     2.020405
      2.012762     2.005119     1.997476     1.989833     1.982190     1.974546     1.966903     1.959260     1.951617     1.943974
      1.936331     1.928688     1.921045     1.913402     1.905759     1.898115     1.890472     1.882829     1.875186     1.867543
      1.859900     1.852257     1.844614     1.836971     1.829327     1.821684     1.814041     1.806398     1.798755     1.791112
      1.783469     1.775826     1.768183     1.760540     1.752896     1.745253     1.737610     1.729967     1.722324     1.714681
      1.707038     1.699395     1.691752     1.684108     1.676465     1.668822     1.661179     1.653536     1.645893     1.638250
      1.630607     1.622964     1.615321     1.607677     1.600034     1.592391     1.584748     1.577105     1.569462     1.561819
      1.554176     1.546533     1.538890     1.531246     1.523603     1.515960     1.508317     1.500674     1.493031     1.485388
      1.477745     1.470102     1.462458     1.454815     1.447172     1.439529     1.431886     1.424243     1.416600     1.408957
      1.401314     1.393671     1.386027     1.378384     1.370741     1.363098     1.355455     1.347812     1.340169     1.332526
      1.324883     1.317240     1.309596     1.301953     1.294310     1.286667     1.279024     1.271381     1.263738     1.256095
      1.248452     1.240808     1.233165     1.225522     1.217879     1.210236     1.202593     1.194950     1.187307     1.179664
      1.172021     1.164377     1.156734     1.149091     1.141448     1.133805     1.126162     1.118519     1.110876     1.103233
      1.095590     1.087946     1.080303     1.072660     1.065017     1.057374     1.049731     1.042088     1.034445     1.026802
      1.019158     1.011515     1.003872     0.996229     0.988586     0.980943     0.973300     0.965657     0.958014     0.950371
      0.942727     0.935084     0.927441     0.919798     0.912155     0.904512     0.896869     0.889226     0.881583     0.873940
      0.866296     0.858653     0.851010     0.843367     0.835724     0.828081     0.820438     0.812795     0.805152     0.797508
      0.789865     0.782222     0.774579     0.766936     0.759293     0.751650     0.744007     0.736364     0.728721     0.721077
      0.713434     0.705791     0.698148     0.690505     0.682862     0.675219     0.667576     0.659933     0.652290     0.644646
      0.637003     0.629360     0.621717     0.614074     0.606431     0.598788     0.591145     0.583502     0.575858     0.568215
      0.560572     0.552929     0.545286     0.537643     0.530000     0.522357     0.514714     0.507071     0.499427     0.491784
      0.484141     0.476498     0.468855     0.461212     0.453569     0.445925     0.438282     0.430639     0.422996     0.415353
      0.407710     0.400067     0.392424     0.384780     0.377137     0.369494     0.361851     0.354208     0.346565     0.338922
      0.331278     0.323635     0.315992     0.308349     0.300706     0.293063     0.285420     0.277777     0.270133     0.262490
      0.254847     0.247204     0.239561     0.231918     0.224275     0.216631     0.208988     0.201345
 NY phased data points follow
  -4.19729E-01 -1.75719E+00 -1.18517E+00 -2.21887E+00 -1.30701E+00 -2.53911E+00  5.70199E-01 -1.54072E-01  1.56996E+00 -1.60486E+00
  -2.95173E+00 -1.69207E+00  6.51279E-01 -4.87986E+00 -1.50954E+00 -5.97812E-01 -3.44557E+00  1.43249E-01 -1.73830E+00 -1.99723E+00
  -1.85199E+00 -1.61503E+00 -3.03242E+00 -1.71411E+00 -1.28399E+00 -1.47996E+00 -2.13463E+00 -1.61252E+00 -1.04775E+00  8.74922E-01
  -1.09265E+00  3.40618E-01 -8.29693E-01 -3.46184E-01 -4.05028E+00  9.42869E-01 -2.11548E+00 -8.56982E-01 -4.79667E-01 -1.41464E+00
  -8.83212E-01 -2.58255E+00 -4.17753E+00 -8.69901E-02 -2.66478E+00 -5.22690E-01 -2.64367E+00 -1.55278E+00 -3.46654E+00 -7.97938E-01
  -9.99286E-01 -1.19892E-01 -4.14027E-01 -1.57987E+00 -1.21770E+00 -3.08109E+00 -1.63464E+00 -1.55227E+00 -9.87309E-01 -2.48664E+00
  -1.63692E+00 -8.24190E-01 -1.82885E+00 -1.95156E+00 -6.33802E-01 -1.28366E+00  4.71250E-01 -2.34734E+00 -8.31467E-01 -1.28395E+00
  -1.57779E+00 -7.18247E-01 -6.19287E-01 -8.37814E-01 -2.48114E+00 -3.91383E+00 -3.57966E+00 -1.38918E+00 -2.30341E+00 -2.18862E+00
   4.61214E-01 -1.30966E+00 -2.03582E+00 -2.15774E+00 -2.16593E+00 -1.34546E+00 -2.62997E+00 -2.87601E+00  4.92540E-01 -4.92571E-01
   1.94828E-01  5.19690E-01 -1.78052E+00 -3.54724E-01 -3.67982E+00 -1.91518E+00 -2.35840E+00 -4.01485E+00 -2.80337E+00 -2.19048E+00
  -1.04444E+00 -3.67546E+00 -3.06361E+00 -1.39503E+00 -2.53490E+00 -4.42269E+00 -4.49563E+00 -1.84922E+00 -2.52159E+00 -3.81319E+00
  -2.34588E+00 -2.15650E+00 -1.31876E+00 -7.51793E-01 -3.90123E+00 -3.03118E+00 -2.23307E+00 -4.47863E+00 -1.52481E+00 -3.76415E+00
  -2.76207E+00 -1.93763E+00 -5.41111E+00 -3.17567E+00 -3.51822E+00 -2.44307E+00 -1.70879E+00 -2.38033E+00 -3.22086E+00 -2.22578E+00
  -1.79712E+00 -5.43108E-01 -2.71867E+00 -2.46031E+00 -1.63441E+00 -2.53100E+00 -8.90002E-01 -3.16437E+00 -3.35261E+00 -1.89786E+00
  -2.41841E+00 -3.97982E+00 -3.51165E+00 -2.70961E+00 -2.85394E+00 -2.22802E+00 -2.32885E+00 -2.86915E+00 -3.63606E+00 -2.44078E+00
  -3.19687E+00 -3.08685E-03 -3.62902E+00 -4.14768E+00 -3.99022E+00 -2.03365E+00 -2.82953E+00 -3.60781E+00 -2.83858E+00 -1.78699E+00
  -4.56019E+00 -2.59589E+00 -2.67182E+00 -5.68420E+00 -1.23414E+00 -2.66315E+00 -1.56870E+00 -2.13557E+00 -2.26360E+00 -3.47299E+00
  -2.78561E+00 -2.54290E+00 -9.04836E-02 -3.72794E+00 -2.46096E+00 -3.38289E+00 -3.25340E+00 -4.66373E+00 -3.41098E+00 -3.13986E+00
  -3.32927E+00 -5.49265E+00 -3.70791E+00 -4.96297E+00 -3.17901E+00 -4.56216E+00 -4.69837E+00 -4.05564E+00 -6.60757E+00 -4.41326E+00
  -6.29004E+00 -2.95059E+00 -5.66956E+00 -6.45905E+00 -4.42828E+00 -4.52051E+00 -6.52230E+00 -6.32196E+00 -4.85105E+00 -6.71633E+00
  -5.29621E+00 -4.37865E+00 -4.34401E+00 -6.05932E+00 -7.08489E+00 -5.57339E+00 -6.02636E+00 -6.67727E+00 -5.80628E+00 -6.55847E+00
  -6.48488E+00 -4.23532E+00 -7.55707E+00 -7.48436E+00 -8.13235E+00 -5.15017E+00 -3.97999E+00 -5.32202E+00 -8.74189E+00 -7.58042E+00
  -6.76941E+00 -6.81219E+00 -6.78683E+00 -9.63089E+00 -8.76995E+00 -8.72041E+00 -8.55233E+00 -9.31223E+00 -1.26535E+01 -1.30960E+01
  -1.02930E+01 -1.16539E+01 -9.85377E+00 -1.23535E+01 -9.90238E+00 -1.04313E+01 -9.01602E+00 -1.12619E+01 -1.11590E+01 -8.84538E+00
  -1.11386E+01 -1.28167E+01 -1.25804E+01 -1.14820E+01 -1.20631E+01 -1.15048E+01 -1.24336E+01 -1.11734E+01 -1.23913E+01 -1.50158E+01
  -1.47361E+01 -1.20766E+01 -1.52033E+01 -1.55081E+01 -1.45839E+01 -1.46227E+01 -1.68523E+01 -1.51662E+01 -1.44750E+01 -1.74917E+01
  -1.49354E+01 -1.85695E+01 -1.53731E+01 -1.60993E+01 -1.66044E+01 -1.67946E+01 -1.89177E+01 -1.96803E+01 -1.89862E+01 -2.05782E+01
  -2.21363E+01 -2.42717E+01 -2.27923E+01 -2.18971E+01 -2.50902E+01 -2.68796E+01 -2.51888E+01 -2.45237E+01 -2.58506E+01 -2.53512E+01
  -2.35213E+01 -2.27872E+01 -2.62015E+01 -2.61740E+01 -2.56868E+01 -2.45506E+01 -2.45737E+01 -2.58012E+01 -2.43176E+01 -2.51077E+01
  -2.29604E+01 -2.18629E+01 -1.90652E+01 -1.92891E+01 -1.91770E+01 -1.43570E+01 -1.60385E+01 -1.33694E+01 -1.28706E+01 -1.09100E+01
  -1.07823E+01 -9.02769E+00 -5.76856E+00 -7.71629E+00 -3.76291E+00 -3.23813E+00 -3.48492E+00 -8.68838E-01 -4.28277E-01  1.20938E+00
   2.93545E+00  4.85272E+00  5.40137E+00  6.22387E+00  1.03582E+01  9.67910E+00  1.13130E+01  1.16073E+01  1.24784E+01  1.36035E+01
   1.31413E+01  1.50203E+01  1.60121E+01  1.41018E+01  1.54631E+01  1.71860E+01  1.61112E+01  1.67745E+01  1.95522E+01  1.70742E+01
   1.76392E+01  1.81230E+01  1.79308E+01  1.67588E+01  1.70429E+01  1.85741E+01  1.61053E+01  1.79465E+01  1.69381E+01  1.88269E+01
   1.69438E+01  1.71169E+01  1.66068E+01  1.71476E+01  1.55286E+01  1.78830E+01  1.85052E+01  2.01761E+01  1.90868E+01  1.94063E+01
   1.80199E+01  1.98289E+01  1.90722E+01  1.82586E+01  1.78874E+01  1.84425E+01  1.91457E+01  1.85172E+01  1.82422E+01  1.76945E+01
   1.90381E+01  1.85688E+01  1.83613E+01  1.93183E+01  1.74980E+01  1.66497E+01  1.88197E+01  1.77579E+01  1.73600E+01  1.79211E+01
   1.91204E+01  1.71544E+01  1.81060E+01  1.72706E+01  1.71418E+01  1.71894E+01  1.92864E+01  1.77964E+01  1.59513E+01  1.57600E+01
   1.75249E+01  1.44471E+01  1.59687E+01  1.65722E+01  1.64070E+01  1.68967E+01  1.50131E+01  1.50072E+01  1.54527E+01  1.46386E+01
   1.46112E+01  1.29268E+01  1.46516E+01  1.27959E+01  1.37138E+01  1.43642E+01  1.30278E+01  1.14800E+01  1.20752E+01  1.28888E+01
   1.12533E+01  1.00562E+01  1.22116E+01  9.22747E+00  1.12380E+01  1.15016E+01  1.04054E+01  1.17146E+01  1.31269E+01  8.05130E+00
   9.95517E+00  8.49969E+00  1.02272E+01  8.97300E+00  7.91354E+00  6.04353E+00  5.91444E+00  7.67425E+00  6.39404E+00  7.51179E+00
   6.61955E+00  6.85889E+00  6.83076E+00  6.68793E+00  6.05877E+00  7.27733E+00  5.74225E+00  6.19973E+00  5.47870E+00  4.16038E+00
   5.55472E+00  6.04144E+00  6.48380E+00  5.94745E+00  6.73408E+00  4.06291E+00  4.07395E+00  5.65954E+00  3.58170E+00  5.74799E+00
   3.22677E+00  3.29959E+00  6.21077E+00  3.21212E+00  5.20795E+00  5.92509E+00  4.70423E+00  3.42802E+00  3.94606E+00  5.17559E+00
   3.23302E+00  3.25025E+00  4.57430E+00  4.85553E+00  3.54710E+00  3.14596E+00  3.48310E+00  3.58044E+00  4.14027E+00  2.76308E+00
   3.63686E+00  3.06808E+00  2.91232E+00  3.86006E+00  4.43197E+00  1.82926E+00  4.04142E+00  2.64664E+00  2.06099E+00  2.99346E+00
   1.55246E+00  2.54664E-01  1.98763E+00  2.47774E+00  2.72134E+00  2.17539E+00  2.42174E+00  9.19312E-01  1.00115E+00  1.69961E+00
   2.26234E+00  2.16912E+00  2.14526E+00  1.29036E+00  2.89102E+00  2.08221E-01  2.88678E+00  2.59596E+00  8.90299E-01  2.39120E+00
   2.01703E+00  1.67666E+00  2.36086E+00 -4.22579E-01  4.67569E+00  2.17657E+00  1.12481E+00 -2.82555E-02
 NY points of the fit to the data follow
  -1.49600E+00 -7.66912E-01 -1.57339E+00 -8.91689E-01 -1.23839E+00 -4.38729E-01 -4.91459E-01 -2.66679E-01 -3.11172E-01 -6.51711E-01
  -6.79681E-01 -1.44367E+00 -1.35143E+00 -2.15431E+00 -1.57786E+00 -2.27924E+00 -1.46977E+00 -2.17520E+00 -1.28822E+00 -2.02085E+00
  -1.19226E+00 -1.93931E+00 -1.24818E+00 -1.86849E+00 -1.35896E+00 -1.83132E+00 -1.55821E+00 -1.84768E+00 -1.79092E+00 -1.79559E+00
  -1.89809E+00 -1.59110E+00 -1.85762E+00 -1.28434E+00 -1.74794E+00 -1.00171E+00 -1.67998E+00 -8.71517E-01 -1.75689E+00 -1.00446E+00
  -1.91894E+00 -1.08022E+00 -1.90625E+00 -9.51181E-01 -1.56521E+00 -5.45354E-01 -9.48577E-01 -3.13572E-01 -8.66119E-01 -5.61405E-01
  -1.17588E+00 -1.15567E+00 -1.69630E+00 -1.80598E+00 -1.96037E+00 -1.86905E+00 -1.82147E+00 -1.69072E+00 -1.53614E+00 -1.45047E+00
  -1.27545E+00 -1.36549E+00 -1.29074E+00 -1.42892E+00 -1.36954E+00 -1.52085E+00 -1.46475E+00 -1.60767E+00 -1.53798E+00 -1.65511E+00
  -1.56446E+00 -1.69002E+00 -1.62494E+00 -1.77032E+00 -1.72716E+00 -1.88286E+00 -1.85418E+00 -2.01381E+00 -1.99277E+00 -2.14553E+00
  -2.13633E+00 -2.27215E+00 -2.26029E+00 -2.38171E+00 -2.37210E+00 -2.48945E+00 -2.49075E+00 -2.59994E+00 -2.60632E+00 -2.69676E+00
  -2.69881E+00 -2.76452E+00 -2.75689E+00 -2.79756E+00 -2.77312E+00 -2.79145E+00 -2.75903E+00 -2.75897E+00 -2.72062E+00 -2.70238E+00
  -2.65741E+00 -2.62205E+00 -2.57102E+00 -2.52184E+00 -2.46413E+00 -2.40302E+00 -2.33893E+00 -2.26930E+00 -2.20326E+00 -2.13955E+00
  -2.07690E+00 -2.01846E+00 -1.95179E+00 -1.89082E+00 -1.81583E+00 -1.74495E+00 -1.65134E+00 -1.58215E+00 -1.49364E+00 -1.43551E+00
  -1.36830E+00 -1.32542E+00 -1.26649E+00 -1.23708E+00 -1.17794E+00 -1.16826E+00 -1.11555E+00 -1.12909E+00 -1.07938E+00 -1.11726E+00
  -1.06702E+00 -1.12871E+00 -1.07910E+00 -1.16627E+00 -1.12153E+00 -1.23412E+00 -1.19765E+00 -1.33238E+00 -1.30342E+00 -1.45311E+00
  -1.43224E+00 -1.59240E+00 -1.58340E+00 -1.75088E+00 -1.75684E+00 -1.92581E+00 -1.94768E+00 -2.11179E+00 -2.14903E+00 -2.30607E+00
  -2.35809E+00 -2.50543E+00 -2.57118E+00 -2.70427E+00 -2.77720E+00 -2.89171E+00 -2.96575E+00 -3.07374E+00 -3.16746E+00 -3.27168E+00
  -3.37828E+00 -3.47538E+00 -3.57742E+00 -3.66565E+00 -3.75654E+00 -3.84071E+00 -3.92803E+00 -4.01382E+00 -4.10296E+00 -4.18950E+00
  -4.28045E+00 -4.36581E+00 -4.45319E+00 -4.53243E+00 -4.61422E+00 -4.68852E+00 -4.77235E+00 -4.84516E+00 -4.93335E+00 -5.00674E+00
  -5.10757E+00 -5.17559E+00 -5.27727E+00 -5.33921E+00 -5.44307E+00 -5.50202E+00 -5.61010E+00 -5.66620E+00 -5.77560E+00 -5.82881E+00
  -5.93598E+00 -5.98694E+00 -6.09152E+00 -6.14352E+00 -6.24642E+00 -6.30095E+00 -6.40075E+00 -6.46009E+00 -6.55519E+00 -6.61814E+00
  -6.70601E+00 -6.77324E+00 -6.85521E+00 -6.92811E+00 -7.00518E+00 -7.08468E+00 -7.15840E+00 -7.24483E+00 -7.31914E+00 -7.40951E+00
  -7.48279E+00 -7.57440E+00 -7.64309E+00 -7.73477E+00 -7.80912E+00 -7.90240E+00 -7.98359E+00 -8.07872E+00 -8.16656E+00 -8.25912E+00
  -8.34956E+00 -8.43869E+00 -8.52920E+00 -8.61729E+00 -8.70871E+00 -8.79534E+00 -8.88673E+00 -8.97169E+00 -9.05511E+00 -9.13827E+00
  -9.21754E+00 -9.30162E+00 -9.37866E+00 -9.46588E+00 -9.54182E+00 -9.63728E+00 -9.71674E+00 -9.82615E+00 -9.91487E+00 -1.00434E+01
  -1.01494E+01 -1.03018E+01 -1.04299E+01 -1.06095E+01 -1.07646E+01 -1.09754E+01 -1.11629E+01 -1.14088E+01 -1.16351E+01 -1.19189E+01
  -1.21872E+01 -1.25105E+01 -1.28238E+01 -1.31877E+01 -1.35490E+01 -1.39459E+01 -1.43413E+01 -1.47618E+01 -1.51817E+01 -1.56182E+01
  -1.60544E+01 -1.65111E+01 -1.69718E+01 -1.74430E+01 -1.79169E+01 -1.83916E+01 -1.88663E+01 -1.93323E+01 -1.97892E+01 -2.02363E+01
  -2.06720E+01 -2.10953E+01 -2.15041E+01 -2.18970E+01 -2.22722E+01 -2.26266E+01 -2.29573E+01 -2.32595E+01 -2.35300E+01 -2.37629E+01
  -2.39534E+01 -2.40938E+01 -2.41778E+01 -2.41962E+01 -2.41411E+01 -2.40027E+01 -2.37733E+01 -2.34442E+01 -2.30101E+01 -2.24653E+01
  -2.18093E+01 -2.10426E+01 -2.01716E+01 -1.92046E+01 -1.81560E+01 -1.70414E+01 -1.58812E+01 -1.46949E+01 -1.35031E+01 -1.23223E+01
  -1.11654E+01 -1.00359E+01 -8.92754E+00 -7.81764E+00 -6.66289E+00 -5.38306E+00 -3.82818E+00 -1.69315E+00  1.03247E+00  2.68421E+00
   5.06620E+00  5.97704E+00  7.92306E+00  8.11158E+00  9.50536E+00  8.62183E+00  1.07138E+01  1.00759E+01  1.22733E+01  1.15830E+01
   1.34216E+01  1.25644E+01  1.41574E+01  1.33694E+01  1.46716E+01  1.41536E+01  1.49700E+01  1.48347E+01  1.53969E+01  1.66115E+01
   1.64003E+01  1.76999E+01  1.67524E+01  1.81563E+01  1.66777E+01  1.80582E+01  1.58138E+01  1.81928E+01  1.59391E+01  1.85076E+01
   1.61670E+01  1.84890E+01  1.61799E+01  1.84782E+01  1.64945E+01  1.89884E+01  1.78595E+01  2.03948E+01  2.02074E+01  2.11752E+01
   2.04416E+01  2.03737E+01  1.95371E+01  1.87388E+01  1.81703E+01  1.71319E+01  1.80144E+01  1.77577E+01  1.88860E+01  1.83957E+01
   1.92002E+01  1.83267E+01  1.87692E+01  1.77381E+01  1.80601E+01  1.71554E+01  1.77371E+01  1.74704E+01  1.84905E+01  1.90786E+01
   1.95830E+01  1.92622E+01  1.92144E+01  1.81581E+01  1.76043E+01  1.62162E+01  1.55141E+01  1.52579E+01  1.52125E+01  1.52786E+01
   1.54020E+01  1.55500E+01  1.56986E+01  1.58313E+01  1.59348E+01  1.60000E+01  1.60192E+01  1.59884E+01  1.59049E+01  1.57689E+01
   1.55816E+01  1.53465E+01  1.50679E+01  1.47519E+01  1.44048E+01  1.40343E+01  1.36471E+01  1.32510E+01  1.28525E+01  1.24581E+01
   1.20730E+01  1.17021E+01  1.13481E+01  1.10138E+01  1.06996E+01  1.04060E+01  1.01316E+01  9.87517E+00  9.63362E+00  9.40462E+00
   9.18456E+00  8.97086E+00  8.76011E+00  8.55019E+00  8.33846E+00  8.12385E+00  7.90491E+00  7.68184E+00  7.45444E+00  7.22397E+00
   6.99119E+00  6.75816E+00  6.52619E+00  6.29769E+00  6.07403E+00  5.85745E+00  5.64899E+00  5.45049E+00  5.26255E+00  5.08647E+00
   4.92222E+00  4.77047E+00  4.63066E+00  4.50298E+00  4.38648E+00  4.28101E+00  4.18535E+00  4.09918E+00  4.02116E+00  3.95099E+00
   3.88735E+00  3.82994E+00  3.77752E+00  3.72989E+00  3.68591E+00  3.64553E+00  3.60773E+00  3.57253E+00  3.53901E+00  3.50729E+00
   3.47656E+00  3.44705E+00  3.41800E+00  3.38967E+00  3.36137E+00  3.33343E+00  3.30522E+00  3.27711E+00  3.24849E+00  3.21975E+00
   3.19031E+00  3.16060E+00  3.13008E+00  3.09919E+00  3.06740E+00  3.03513E+00  3.00190E+00  2.96816E+00  2.93344E+00  2.89819E+00
   2.86192E+00  2.82511E+00  2.78729E+00  2.74895E+00  2.70962E+00  2.66980E+00  2.62901E+00  2.58774E+00  2.54556E+00  2.50297E+00
   2.45951E+00  2.41569E+00  2.37105E+00  2.32611E+00  2.28043E+00  2.23455E+00  2.18800E+00  2.14131E+00  2.09404E+00  2.04675E+00
   1.99900E+00  1.95134E+00  1.90334E+00  1.85559E+00  1.80767E+00  1.76022E+00  1.71288E+00  1.66636E+00
 NY background values follow
    -2.596E+00   -2.597E+00   -2.599E+00   -2.601E+00   -2.605E+00   -2.609E+00   -2.614E+00   -2.619E+00   -2.626E+00   -2.633E+00
    -2.641E+00   -2.649E+00   -2.658E+00   -2.668E+00   -2.679E+00   -2.690E+00   -2.701E+00   -2.714E+00   -2.726E+00   -2.740E+00
    -2.754E+00   -2.768E+00   -2.783E+00   -2.799E+00   -2.814E+00   -2.831E+00   -2.848E+00   -2.865E+00   -2.883E+00   -2.901E+00
    -2.919E+00   -2.938E+00   -2.957E+00   -2.976E+00   -2.996E+00   -3.016E+00   -3.036E+00   -3.057E+00   -3.078E+00   -3.099E+00
    -3.120E+00   -3.142E+00   -3.163E+00   -3.185E+00   -3.207E+00   -3.229E+00   -3.252E+00   -3.274E+00   -3.296E+00   -3.319E+00
    -3.341E+00   -3.364E+00   -3.386E+00   -3.409E+00   -3.431E+00   -3.454E+00   -3.476E+00   -3.499E+00   -3.521E+00   -3.543E+00
    -3.566E+00   -3.588E+00   -3.609E+00   -3.631E+00   -3.653E+00   -3.674E+00   -3.695E+00   -3.716E+00   -3.737E+00   -3.757E+00
    -3.777E+00   -3.797E+00   -3.817E+00   -3.836E+00   -3.855E+00   -3.873E+00   -3.892E+00   -3.910E+00   -3.928E+00   -3.946E+00
    -3.963E+00   -3.981E+00   -3.998E+00   -4.015E+00   -4.032E+00   -4.049E+00   -4.065E+00   -4.082E+00   -4.098E+00   -4.115E+00
    -4.131E+00   -4.147E+00   -4.163E+00   -4.180E+00   -4.196E+00   -4.212E+00   -4.228E+00   -4.245E+00   -4.261E+00   -4.277E+00
    -4.294E+00   -4.310E+00   -4.327E+00   -4.343E+00   -4.360E+00   -4.377E+00   -4.394E+00   -4.412E+00   -4.429E+00   -4.447E+00
    -4.465E+00   -4.483E+00   -4.501E+00   -4.520E+00   -4.538E+00   -4.558E+00   -4.577E+00   -4.597E+00   -4.617E+00   -4.637E+00
    -4.658E+00   -4.679E+00   -4.700E+00   -4.722E+00   -4.744E+00   -4.767E+00   -4.790E+00   -4.813E+00   -4.837E+00   -4.861E+00
    -4.886E+00   -4.911E+00   -4.937E+00   -4.964E+00   -4.991E+00   -5.018E+00   -5.046E+00   -5.074E+00   -5.104E+00   -5.133E+00
    -5.164E+00   -5.195E+00   -5.226E+00   -5.258E+00   -5.291E+00   -5.325E+00   -5.360E+00   -5.396E+00   -5.432E+00   -5.470E+00
    -5.509E+00   -5.549E+00   -5.591E+00   -5.634E+00   -5.679E+00   -5.725E+00   -5.773E+00   -5.822E+00   -5.873E+00   -5.927E+00
    -5.982E+00   -6.039E+00   -6.099E+00   -6.160E+00   -6.224E+00   -6.290E+00   -6.359E+00   -6.430E+00   -6.504E+00   -6.581E+00
    -6.660E+00   -6.742E+00   -6.827E+00   -6.915E+00   -7.006E+00   -7.100E+00   -7.197E+00   -7.298E+00   -7.402E+00   -7.509E+00
    -7.620E+00   -7.735E+00   -7.853E+00   -7.975E+00   -8.101E+00   -8.230E+00   -8.364E+00   -8.502E+00   -8.644E+00   -8.790E+00
    -8.941E+00   -9.095E+00   -9.255E+00   -9.419E+00   -9.587E+00   -9.760E+00   -9.938E+00   -1.012E+01   -1.031E+01   -1.050E+01
    -1.070E+01   -1.090E+01   -1.111E+01   -1.132E+01   -1.154E+01   -1.177E+01   -1.200E+01   -1.223E+01   -1.247E+01   -1.272E+01
    -1.297E+01   -1.323E+01   -1.350E+01   -1.377E+01   -1.404E+01   -1.433E+01   -1.461E+01   -1.491E+01   -1.521E+01   -1.551E+01
    -1.582E+01   -1.613E+01   -1.645E+01   -1.677E+01   -1.709E+01   -1.742E+01   -1.775E+01   -1.809E+01   -1.842E+01   -1.876E+01
    -1.910E+01   -1.944E+01   -1.978E+01   -2.013E+01   -2.047E+01   -2.082E+01   -2.117E+01   -2.151E+01   -2.186E+01   -2.221E+01
    -2.255E+01   -2.290E+01   -2.324E+01   -2.358E+01   -2.392E+01   -2.426E+01   -2.460E+01   -2.493E+01   -2.526E+01   -2.559E+01
    -2.591E+01   -2.624E+01   -2.655E+01   -2.687E+01   -2.718E+01   -2.748E+01   -2.778E+01   -2.808E+01   -2.837E+01   -2.865E+01
    -2.893E+01   -2.920E+01   -2.947E+01   -2.973E+01   -2.998E+01   -3.022E+01   -3.046E+01   -3.069E+01   -3.091E+01   -3.113E+01
    -3.133E+01   -3.153E+01   -3.172E+01   -3.189E+01   -3.206E+01   -3.222E+01   -3.237E+01   -3.251E+01   -3.264E+01   -3.276E+01
    -3.286E+01   -3.296E+01   -3.304E+01   -3.311E+01   -3.317E+01   -3.322E+01   -3.325E+01   -3.328E+01   -3.329E+01   -3.329E+01
    -3.328E+01   -3.325E+01   -3.322E+01   -3.317E+01   -3.312E+01   -3.305E+01   -3.298E+01   -3.289E+01   -3.280E+01   -3.269E+01
    -3.258E+01   -3.245E+01   -3.232E+01   -3.218E+01   -3.203E+01   -3.187E+01   -3.170E+01   -3.152E+01   -3.134E+01   -3.115E+01
    -3.095E+01   -3.075E+01   -3.054E+01   -3.032E+01   -3.009E+01   -2.986E+01   -2.962E+01   -2.937E+01   -2.912E+01   -2.887E+01
    -2.861E+01   -2.834E+01   -2.807E+01   -2.779E+01   -2.751E+01   -2.722E+01   -2.693E+01   -2.664E+01   -2.634E+01   -2.604E+01
    -2.573E+01   -2.542E+01   -2.511E+01   -2.480E+01   -2.448E+01   -2.416E+01   -2.384E+01   -2.351E+01   -2.319E+01   -2.286E+01
    -2.253E+01   -2.220E+01   -2.187E+01   -2.153E+01   -2.120E+01   -2.086E+01   -2.053E+01   -2.019E+01   -1.986E+01   -1.953E+01
    -1.919E+01   -1.886E+01   -1.853E+01   -1.819E+01   -1.786E+01   -1.754E+01   -1.721E+01   -1.688E+01   -1.656E+01   -1.624E+01
    -1.592E+01   -1.560E+01   -1.528E+01   -1.497E+01   -1.465E+01   -1.434E+01   -1.404E+01   -1.373E+01   -1.342E+01   -1.312E+01
    -1.282E+01   -1.252E+01   -1.223E+01   -1.193E+01   -1.164E+01   -1.135E+01   -1.106E+01   -1.078E+01   -1.050E+01   -1.022E+01
    -9.941E+00   -9.666E+00   -9.394E+00   -9.124E+00   -8.858E+00   -8.593E+00   -8.332E+00   -8.073E+00   -7.817E+00   -7.564E+00
    -7.314E+00   -7.066E+00   -6.822E+00   -6.580E+00   -6.341E+00   -6.106E+00   -5.873E+00   -5.644E+00   -5.418E+00   -5.194E+00
    -4.975E+00   -4.758E+00   -4.544E+00   -4.334E+00   -4.128E+00   -3.924E+00   -3.724E+00   -3.528E+00   -3.335E+00   -3.145E+00
    -2.959E+00   -2.777E+00   -2.598E+00   -2.423E+00   -2.252E+00   -2.084E+00   -1.920E+00   -1.760E+00   -1.604E+00   -1.452E+00
    -1.303E+00   -1.159E+00   -1.018E+00   -8.817E-01   -7.493E-01   -6.210E-01   -4.968E-01   -3.767E-01   -2.608E-01   -1.489E-01
    -4.102E-02    6.292E-02    1.630E-01    2.592E-01    3.516E-01    4.403E-01    5.253E-01    6.067E-01    6.845E-01    7.588E-01
     8.296E-01    8.971E-01    9.611E-01    1.022E+00    1.079E+00    1.134E+00    1.185E+00    1.233E+00    1.278E+00    1.320E+00
     1.359E+00    1.396E+00    1.429E+00    1.460E+00    1.488E+00    1.513E+00    1.536E+00    1.556E+00    1.574E+00    1.589E+00
     1.602E+00    1.612E+00    1.621E+00    1.627E+00    1.630E+00    1.632E+00    1.632E+00    1.629E+00    1.625E+00    1.619E+00
     1.611E+00    1.601E+00    1.589E+00    1.576E+00    1.561E+00    1.544E+00    1.526E+00    1.507E+00    1.486E+00    1.464E+00
     1.440E+00    1.415E+00    1.389E+00    1.362E+00    1.333E+00    1.304E+00    1.274E+00    1.242E+00    1.210E+00    1.177E+00
     1.143E+00    1.109E+00    1.073E+00    1.038E+00    1.001E+00    9.643E-01    9.269E-01    8.892E-01
 Ala      Conc. = 1.00E+04
