 LCModel (Version 6.3-1L) Copyright: S.W. Provencher.          Ref.: Magn. Reson. Med. 30:672-679 (1993).                
 Slice#2 Row#12 Col#2  K_02_press_1_raw_act
 36 lines in following concentration table = NCONC+1
    Conc.  %SD /Cr+PCr  Metabolite                                         
    0.000 999%   0.000 Ala                                                 
   74.907  57%   0.181 Asp                                                 
    0.000 999%   0.000 Cr                                                  
  412.830  11%   1.000 PCr                                                 
   33.972  76% 8.2E-02 GABA                                                
   34.270  76% 8.3E-02 Glc                                                 
 4.47E+03  11%  10.836 Gln                                                 
 2.74E+03  23%   6.636 Glu                                                 
  120.431  17%   0.292 GPC                                                 
    0.000 999%   0.000 PCh                                                 
    0.000 999%   0.000 GSH                                                 
 3.35E+03   7%   8.107 Ins                                                 
    0.000 999%   0.000 Lac                                                 
  253.071  47%   0.613 NAA                                                 
  136.677  95%   0.331 NAAG                                                
   15.068  55% 3.6E-02 Scyllo                                              
   59.637  71%   0.144 Tau                                                 
    0.000 999%   0.000 -CrCH2                                              
  120.431  17%   0.292 GPC+PCh                                             
  389.747  15%   0.944 NAA+NAAG                                            
  412.830  11%   1.000 Cr+PCr                                              
 7.21E+03  14%  17.472 Glu+Gln                                             
  202.463  67%   0.490 Lip13a                                              
    0.000 999%   0.000 Lip13b                                              
    0.000 999%   0.000 Lip09                                               
  132.305  48%   0.320 MM09                                                
   17.207 484% 4.2E-02 Lip20                                               
  213.518  55%   0.517 MM20                                                
   45.648  63%   0.111 MM12                                                
    0.000 999%   0.000 MM14                                                
   19.596 313% 4.7E-02 MM17                                                
  202.463  67%   0.490 Lip13a+Lip13b                                       
  248.111  57%   0.601 MM14+Lip13a+Lip13b+MM12                             
  132.305  48%   0.320 MM09+Lip09                                          
  230.725  62%   0.559 MM20+Lip20                                          
   6 lines in following misc. output table
  FWHM = 0.183 ppm    S/N =   4                                            
  Data shift = 0.122 ppm                                                   
  Ph:-148 deg      17.6 deg/ppm                                            
  alphaB,S = 3.3E+00,   2.8E+02                                            
   11 spline knots.   Ns = 9(2)                                            
  (12) 2 infls.   ( 7) 1 extrs.                                            
  498 points on ppm-axis = NY
      4.000000     3.992357     3.984714     3.977070     3.969427     3.961784     3.954141     3.946497     3.938854     3.931211
      3.923568     3.915925     3.908281     3.900638     3.892995     3.885352     3.877708     3.870065     3.862422     3.854779
      3.847136     3.839492     3.831849     3.824206     3.816563     3.808919     3.801276     3.793633     3.785990     3.778347
      3.770703     3.763060     3.755417     3.747774     3.740130     3.732487     3.724844     3.717201     3.709558     3.701914
      3.694271     3.686628     3.678985     3.671341     3.663698     3.656055     3.648412     3.640769     3.633125     3.625482
      3.617839     3.610196     3.602552     3.594909     3.587266     3.579623     3.571980     3.564336     3.556693     3.549050
      3.541407     3.533763     3.526120     3.518477     3.510834     3.503191     3.495547     3.487904     3.480261     3.472618
      3.464974     3.457331     3.449688     3.442045     3.434402     3.426758     3.419115     3.411472     3.403829     3.396185
      3.388542     3.380899     3.373256     3.365613     3.357969     3.350326     3.342683     3.335040     3.327396     3.319753
      3.312110     3.304467     3.296824     3.289180     3.281537     3.273894     3.266251     3.258607     3.250964     3.243321
      3.235678     3.228034     3.220391     3.212748     3.205105     3.197462     3.189818     3.182175     3.174532     3.166889
      3.159245     3.151602     3.143959     3.136316     3.128673     3.121029     3.113386     3.105743     3.098100     3.090456
      3.082813     3.075170     3.067527     3.059884     3.052240     3.044597     3.036954     3.029311     3.021667     3.014024
      3.006381     2.998738     2.991095     2.983451     2.975808     2.968165     2.960522     2.952878     2.945235     2.937592
      2.929949     2.922306     2.914662     2.907019     2.899376     2.891733     2.884089     2.876446     2.868803     2.861160
      2.853517     2.845873     2.838230     2.830587     2.822944     2.815300     2.807657     2.800014     2.792371     2.784728
      2.777084     2.769441     2.761798     2.754155     2.746511     2.738868     2.731225     2.723582     2.715939     2.708295
      2.700652     2.693009     2.685366     2.677722     2.670079     2.662436     2.654793     2.647150     2.639506     2.631863
      2.624220     2.616577     2.608933     2.601290     2.593647     2.586004     2.578361     2.570717     2.563074     2.555431
      2.547788     2.540144     2.532501     2.524858     2.517215     2.509572     2.501928     2.494285     2.486642     2.478999
      2.471355     2.463712     2.456069     2.448426     2.440783     2.433139     2.425496     2.417853     2.410210     2.402566
      2.394923     2.387280     2.379637     2.371994     2.364350     2.356707     2.349064     2.341421     2.333777     2.326134
      2.318491     2.310848     2.303205     2.295561     2.287918     2.280275     2.272632     2.264988     2.257345     2.249702
      2.242059     2.234416     2.226772     2.219129     2.211486     2.203843     2.196199     2.188556     2.180913     2.173270
      2.165627     2.157983     2.150340     2.142697     2.135054     2.127410     2.119767     2.112124     2.104481     2.096838
      2.089194     2.081551     2.073908     2.066265     2.058621     2.050978     2.043335     2.035692     2.028049     2.020405
      2.012762     2.005119     1.997476     1.989833     1.982190     1.974546     1.966903     1.959260     1.951617     1.943974
      1.936331     1.928688     1.921045     1.913402     1.905759     1.898115     1.890472     1.882829     1.875186     1.867543
      1.859900     1.852257     1.844614     1.836971     1.829327     1.821684     1.814041     1.806398     1.798755     1.791112
      1.783469     1.775826     1.768183     1.760540     1.752896     1.745253     1.737610     1.729967     1.722324     1.714681
      1.707038     1.699395     1.691752     1.684108     1.676465     1.668822     1.661179     1.653536     1.645893     1.638250
      1.630607     1.622964     1.615321     1.607677     1.600034     1.592391     1.584748     1.577105     1.569462     1.561819
      1.554176     1.546533     1.538890     1.531246     1.523603     1.515960     1.508317     1.500674     1.493031     1.485388
      1.477745     1.470102     1.462458     1.454815     1.447172     1.439529     1.431886     1.424243     1.416600     1.408957
      1.401314     1.393671     1.386027     1.378384     1.370741     1.363098     1.355455     1.347812     1.340169     1.332526
      1.324883     1.317240     1.309596     1.301953     1.294310     1.286667     1.279024     1.271381     1.263738     1.256095
      1.248452     1.240808     1.233165     1.225522     1.217879     1.210236     1.202593     1.194950     1.187307     1.179664
      1.172021     1.164377     1.156734     1.149091     1.141448     1.133805     1.126162     1.118519     1.110876     1.103233
      1.095590     1.087946     1.080303     1.072660     1.065017     1.057374     1.049731     1.042088     1.034445     1.026802
      1.019158     1.011515     1.003872     0.996229     0.988586     0.980943     0.973300     0.965657     0.958014     0.950371
      0.942727     0.935084     0.927441     0.919798     0.912155     0.904512     0.896869     0.889226     0.881583     0.873940
      0.866296     0.858653     0.851010     0.843367     0.835724     0.828081     0.820438     0.812795     0.805152     0.797508
      0.789865     0.782222     0.774579     0.766936     0.759293     0.751650     0.744007     0.736364     0.728721     0.721077
      0.713434     0.705791     0.698148     0.690505     0.682862     0.675219     0.667576     0.659933     0.652290     0.644646
      0.637003     0.629360     0.621717     0.614074     0.606431     0.598788     0.591145     0.583502     0.575858     0.568215
      0.560572     0.552929     0.545286     0.537643     0.530000     0.522357     0.514714     0.507071     0.499427     0.491784
      0.484141     0.476498     0.468855     0.461212     0.453569     0.445925     0.438282     0.430639     0.422996     0.415353
      0.407710     0.400067     0.392424     0.384780     0.377137     0.369494     0.361851     0.354208     0.346565     0.338922
      0.331278     0.323635     0.315992     0.308349     0.300706     0.293063     0.285420     0.277777     0.270133     0.262490
      0.254847     0.247204     0.239561     0.231918     0.224275     0.216631     0.208988     0.201345
 NY phased data points follow
   8.96087E+01  9.08513E+01  9.22353E+01  9.19499E+01  8.95985E+01  8.47755E+01  8.54973E+01  8.70618E+01  8.31010E+01  8.46442E+01
   8.65355E+01  8.37847E+01  8.34320E+01  8.30404E+01  7.95108E+01  8.13585E+01  7.97181E+01  7.98318E+01  7.84735E+01  7.98690E+01
   7.66295E+01  7.82207E+01  7.42592E+01  7.51174E+01  7.52124E+01  7.53494E+01  7.60472E+01  7.57360E+01  7.60057E+01  7.64075E+01
   7.36067E+01  7.37731E+01  7.54171E+01  7.21945E+01  7.65223E+01  7.19189E+01  7.49697E+01  7.47002E+01  7.53531E+01  7.30666E+01
   7.57989E+01  7.48798E+01  7.36728E+01  7.20463E+01  7.40735E+01  7.12816E+01  7.50913E+01  7.43919E+01  7.17437E+01  7.19475E+01
   7.41226E+01  7.23274E+01  7.27915E+01  6.96632E+01  7.10868E+01  6.91854E+01  7.12629E+01  6.63895E+01  6.85752E+01  6.86440E+01
   6.71862E+01  6.72619E+01  6.81635E+01  6.57842E+01  6.71533E+01  6.49477E+01  6.53125E+01  6.53455E+01  6.47245E+01  6.43717E+01
   6.43288E+01  6.21779E+01  6.28799E+01  6.33998E+01  6.23179E+01  5.85730E+01  6.07278E+01  5.92095E+01  5.91914E+01  5.82831E+01
   5.76560E+01  5.56365E+01  5.73643E+01  5.52542E+01  5.73463E+01  5.66712E+01  5.32754E+01  5.64392E+01  5.63629E+01  5.43695E+01
   5.39042E+01  5.22183E+01  5.34611E+01  5.44458E+01  5.39255E+01  5.12063E+01  5.30999E+01  5.08978E+01  4.95217E+01  5.18608E+01
   5.10647E+01  5.22682E+01  5.11589E+01  5.05321E+01  5.29818E+01  5.05528E+01  5.03285E+01  5.03292E+01  4.96632E+01  5.05605E+01
   5.17102E+01  4.99396E+01  4.92077E+01  5.16596E+01  4.96708E+01  4.91358E+01  4.98300E+01  4.84997E+01  5.03492E+01  5.14390E+01
   4.82602E+01  5.29999E+01  5.13335E+01  4.97687E+01  4.79645E+01  4.72447E+01  5.06805E+01  5.07571E+01  5.09010E+01  4.84365E+01
   4.98711E+01  4.86828E+01  4.82064E+01  4.69642E+01  4.57613E+01  4.56427E+01  4.74774E+01  4.69261E+01  4.74675E+01  4.75380E+01
   4.73301E+01  4.39231E+01  4.54769E+01  4.66580E+01  4.48802E+01  4.34112E+01  4.40755E+01  4.47396E+01  4.42138E+01  4.61815E+01
   4.37760E+01  4.18748E+01  4.47818E+01  4.16169E+01  4.38241E+01  4.18549E+01  4.23206E+01  4.52150E+01  4.31264E+01  4.26166E+01
   4.25316E+01  4.39686E+01  3.99577E+01  4.19503E+01  4.37568E+01  4.27515E+01  4.38863E+01  4.50613E+01  4.23082E+01  4.09183E+01
   4.25690E+01  4.08872E+01  4.33654E+01  4.39701E+01  4.47968E+01  4.37184E+01  4.35422E+01  4.56552E+01  4.63766E+01  4.23693E+01
   4.48248E+01  4.41500E+01  4.16164E+01  4.65314E+01  4.48189E+01  4.56228E+01  4.43628E+01  4.40130E+01  4.27344E+01  4.55159E+01
   4.13162E+01  4.34599E+01  4.29858E+01  4.49569E+01  4.34207E+01  4.34671E+01  4.18657E+01  4.16493E+01  4.24828E+01  4.36431E+01
   4.30544E+01  4.31489E+01  4.52718E+01  4.61945E+01  4.38002E+01  4.62186E+01  4.38691E+01  4.56451E+01  4.44819E+01  4.55641E+01
   4.29951E+01  4.29306E+01  4.44255E+01  4.78379E+01  4.58965E+01  4.61609E+01  4.76518E+01  4.86154E+01  4.64875E+01  4.69166E+01
   4.84051E+01  4.80161E+01  4.78987E+01  4.68182E+01  4.94490E+01  4.93259E+01  4.83274E+01  5.27470E+01  4.80393E+01  5.10247E+01
   5.04358E+01  4.90820E+01  4.94239E+01  4.72532E+01  4.72759E+01  4.84084E+01  4.94207E+01  4.62055E+01  4.75565E+01  5.05268E+01
   4.97359E+01  4.70705E+01  4.70310E+01  4.88758E+01  4.84353E+01  4.74890E+01  4.71086E+01  4.62453E+01  4.94034E+01  5.09890E+01
   4.99944E+01  5.11736E+01  4.97058E+01  5.00920E+01  5.12448E+01  5.13057E+01  5.05005E+01  5.37059E+01  5.15679E+01  5.31088E+01
   5.10788E+01  5.22236E+01  4.90159E+01  5.18004E+01  5.30712E+01  5.34363E+01  5.15564E+01  5.17461E+01  5.20683E+01  5.30171E+01
   5.25249E+01  5.29622E+01  5.02144E+01  5.11541E+01  4.99595E+01  4.93140E+01  5.06718E+01  5.09456E+01  4.98382E+01  4.94118E+01
   4.90741E+01  4.97699E+01  5.10021E+01  5.06117E+01  4.65304E+01  4.79527E+01  4.91620E+01  4.75340E+01  4.60967E+01  4.95984E+01
   4.77270E+01  4.77002E+01  4.74833E+01  4.68011E+01  4.57374E+01  4.81892E+01  4.57885E+01  4.66311E+01  4.58705E+01  4.94455E+01
   4.59316E+01  4.73186E+01  5.01965E+01  4.50684E+01  4.87818E+01  4.74634E+01  4.53967E+01  4.51963E+01  4.65508E+01  4.54084E+01
   4.61838E+01  4.69419E+01  4.88928E+01  4.53188E+01  4.54615E+01  4.56242E+01  4.55348E+01  4.47622E+01  4.63155E+01  4.67835E+01
   4.59543E+01  4.80748E+01  4.63966E+01  4.58540E+01  4.61527E+01  4.42583E+01  4.46816E+01  4.48893E+01  4.62893E+01  4.30602E+01
   4.45969E+01  4.51832E+01  4.64052E+01  4.39270E+01  4.37489E+01  4.69777E+01  4.61042E+01  4.49579E+01  4.43735E+01  4.70047E+01
   4.48329E+01  4.57226E+01  4.58613E+01  4.65597E+01  4.52548E+01  4.46890E+01  4.52506E+01  4.50333E+01  4.72310E+01  4.44319E+01
   4.72062E+01  4.54671E+01  4.53870E+01  4.54002E+01  4.27943E+01  4.29181E+01  4.67303E+01  4.51149E+01  4.45311E+01  4.43313E+01
   4.51773E+01  4.32554E+01  4.27646E+01  4.44918E+01  4.55944E+01  4.46989E+01  4.32247E+01  4.43976E+01  4.43339E+01  4.22187E+01
   4.16501E+01  4.26740E+01  4.61734E+01  4.47260E+01  4.29899E+01  4.57681E+01  4.48323E+01  4.41057E+01  4.58519E+01  4.41265E+01
   4.22039E+01  4.25259E+01  4.40220E+01  4.14767E+01  4.40113E+01  4.12340E+01  4.31702E+01  4.06136E+01  4.20290E+01  4.12908E+01
   4.28474E+01  4.06216E+01  4.30564E+01  4.30988E+01  4.18367E+01  3.85752E+01  4.08303E+01  3.98050E+01  3.97232E+01  3.90612E+01
   3.88071E+01  4.13079E+01  4.00896E+01  3.79231E+01  4.00730E+01  3.75098E+01  3.87127E+01  3.91876E+01  3.71020E+01  4.00978E+01
   3.71901E+01  3.98897E+01  3.81483E+01  3.85996E+01  3.92839E+01  3.66542E+01  3.62280E+01  3.77275E+01  3.70250E+01  3.82998E+01
   3.64993E+01  3.72462E+01  3.15948E+01  3.37467E+01  3.51534E+01  3.22289E+01  3.38279E+01  3.52561E+01  3.57883E+01  3.65024E+01
   3.40120E+01  3.47226E+01  3.43337E+01  3.64320E+01  3.22656E+01  3.43718E+01  3.54677E+01  3.42185E+01  3.13168E+01  3.27179E+01
   3.39915E+01  3.12684E+01  3.30903E+01  3.40488E+01  3.20417E+01  3.30600E+01  3.53065E+01  3.16026E+01  3.06519E+01  3.42082E+01
   3.29525E+01  3.13728E+01  3.22392E+01  3.26486E+01  3.03678E+01  3.06691E+01  3.11970E+01  2.91698E+01  2.98967E+01  3.18415E+01
   3.20426E+01  2.91535E+01  2.98737E+01  3.12526E+01  3.01924E+01  2.71546E+01  2.78429E+01  2.87696E+01  2.71367E+01  3.12450E+01
   2.86660E+01  2.77034E+01  2.80886E+01  2.74550E+01  2.71307E+01  2.57916E+01  2.62297E+01  2.31427E+01  2.63182E+01  2.55089E+01
   2.51662E+01  2.51527E+01  2.22583E+01  2.83123E+01  2.43392E+01  2.52345E+01  2.35553E+01  2.48429E+01  2.35506E+01  2.19110E+01
   2.27887E+01  2.31484E+01  2.48703E+01  2.65455E+01  2.39129E+01  2.43655E+01  2.57138E+01  2.57318E+01
 NY points of the fit to the data follow
   8.93507E+01  8.90716E+01  8.84771E+01  8.81024E+01  8.73787E+01  8.69592E+01  8.61583E+01  8.56970E+01  8.47636E+01  8.42438E+01
   8.30801E+01  8.25458E+01  8.11773E+01  8.08593E+01  7.95916E+01  7.95246E+01  7.84785E+01  7.87846E+01  7.78505E+01  7.81181E+01
   7.73274E+01  7.74473E+01  7.67033E+01  7.66853E+01  7.60452E+01  7.59508E+01  7.54535E+01  7.52748E+01  7.49586E+01  7.47008E+01
   7.47484E+01  7.45697E+01  7.49607E+01  7.47444E+01  7.53506E+01  7.49534E+01  7.56201E+01  7.50151E+01  7.56570E+01  7.48765E+01
   7.54792E+01  7.46104E+01  7.51805E+01  7.43301E+01  7.49326E+01  7.41626E+01  7.47957E+01  7.39721E+01  7.43163E+01  7.33592E+01
   7.33462E+01  7.23979E+01  7.22000E+01  7.15565E+01  7.14710E+01  7.07642E+01  7.06599E+01  6.97433E+01  6.95345E+01  6.83976E+01
   6.82938E+01  6.72130E+01  6.73048E+01  6.61391E+01  6.62125E+01  6.49582E+01  6.50078E+01  6.37130E+01  6.37742E+01  6.25736E+01
   6.28060E+01  6.19391E+01  6.24738E+01  6.15623E+01  6.18853E+01  6.07442E+01  6.08799E+01  5.96093E+01  5.96294E+01  5.83366E+01
   5.83205E+01  5.71112E+01  5.70456E+01  5.60325E+01  5.61064E+01  5.52489E+01  5.53419E+01  5.45173E+01  5.45187E+01  5.37364E+01
   5.36339E+01  5.29778E+01  5.28255E+01  5.23515E+01  5.22265E+01  5.19370E+01  5.19030E+01  5.17643E+01  5.17022E+01  5.16522E+01
   5.15088E+01  5.15372E+01  5.13146E+01  5.14059E+01  5.10923E+01  5.12215E+01  5.08214E+01  5.10145E+01  5.07101E+01  5.09460E+01
   5.06920E+01  5.08393E+01  5.05905E+01  5.06441E+01  5.04264E+01  5.04302E+01  5.02409E+01  5.02251E+01  5.01391E+01  5.01193E+01
   5.01168E+01  5.01005E+01  5.01209E+01  5.01236E+01  5.03133E+01  5.03326E+01  5.03973E+01  5.03521E+01  5.02473E+01  5.01321E+01
   4.98671E+01  4.96814E+01  4.93026E+01  4.90687E+01  4.86199E+01  4.83568E+01  4.78650E+01  4.75854E+01  4.70691E+01  4.67840E+01
   4.62628E+01  4.59839E+01  4.54745E+01  4.52068E+01  4.47180E+01  4.44931E+01  4.41236E+01  4.40230E+01  4.39769E+01  4.39493E+01
   4.39064E+01  4.38843E+01  4.38373E+01  4.38202E+01  4.37680E+01  4.37545E+01  4.36985E+01  4.36887E+01  4.36313E+01  4.36248E+01
   4.35680E+01  4.35667E+01  4.35112E+01  4.35131E+01  4.34599E+01  4.34685E+01  4.34281E+01  4.34435E+01  4.34188E+01  4.34373E+01
   4.34273E+01  4.34507E+01  4.34569E+01  4.34841E+01  4.34996E+01  4.34980E+01  4.34932E+01  4.34409E+01  4.33601E+01  4.32802E+01
   4.31030E+01  4.30493E+01  4.28195E+01  4.29424E+01  4.27441E+01  4.30911E+01  4.29757E+01  4.35575E+01  4.34274E+01  4.40995E+01
   4.37712E+01  4.42412E+01  4.35592E+01  4.39942E+01  4.30114E+01  4.35922E+01  4.24659E+01  4.34997E+01  4.24741E+01  4.39238E+01
   4.30513E+01  4.46311E+01  4.37998E+01  4.51972E+01  4.42108E+01  4.53433E+01  4.42609E+01  4.52434E+01  4.42089E+01  4.51582E+01
   4.43749E+01  4.54567E+01  4.50302E+01  4.61604E+01  4.60072E+01  4.68824E+01  4.68092E+01  4.72151E+01  4.70416E+01  4.71694E+01
   4.70204E+01  4.71826E+01  4.72942E+01  4.78579E+01  4.81434E+01  4.89548E+01  4.92229E+01  5.01263E+01  4.99213E+01  5.04429E+01
   4.95682E+01  4.95187E+01  4.81538E+01  4.85715E+01  4.71254E+01  4.80453E+01  4.67052E+01  4.81854E+01  4.70988E+01  4.86894E+01
   4.75516E+01  4.90310E+01  4.77642E+01  4.89800E+01  4.75435E+01  4.86840E+01  4.75836E+01  4.88481E+01  4.80503E+01  4.94105E+01
   4.88328E+01  5.01633E+01  4.97236E+01  5.09284E+01  5.05489E+01  5.15793E+01  5.11768E+01  5.18159E+01  5.13892E+01  5.20885E+01
   5.18435E+01  5.26560E+01  5.25109E+01  5.32946E+01  5.27392E+01  5.32545E+01  5.24884E+01  5.27625E+01  5.18454E+01  5.19778E+01
   5.10695E+01  5.10803E+01  5.03000E+01  5.02731E+01  4.96487E+01  4.96287E+01  4.91631E+01  4.91238E+01  4.87690E+01  4.86341E+01
   4.82974E+01  4.81612E+01  4.80664E+01  4.80277E+01  4.79599E+01  4.79373E+01  4.79051E+01  4.78486E+01  4.78229E+01  4.77649E+01
   4.77325E+01  4.76609E+01  4.76162E+01  4.75336E+01  4.74809E+01  4.74160E+01  4.73790E+01  4.73267E+01  4.72949E+01  4.72479E+01
   4.72149E+01  4.71692E+01  4.71275E+01  4.70790E+01  4.70353E+01  4.69876E+01  4.69430E+01  4.68956E+01  4.68505E+01  4.68031E+01
   4.67560E+01  4.67089E+01  4.66610E+01  4.66138E+01  4.65667E+01  4.65201E+01  4.64734E+01  4.64275E+01  4.63814E+01  4.63363E+01
   4.62907E+01  4.62458E+01  4.62014E+01  4.61574E+01  4.61145E+01  4.60722E+01  4.60308E+01  4.59904E+01  4.59510E+01  4.59125E+01
   4.58750E+01  4.58387E+01  4.58034E+01  4.57694E+01  4.57366E+01  4.57050E+01  4.56747E+01  4.56456E+01  4.56177E+01  4.55909E+01
   4.55650E+01  4.55397E+01  4.55149E+01  4.54902E+01  4.54651E+01  4.54391E+01  4.54119E+01  4.53826E+01  4.53509E+01  4.53159E+01
   4.52771E+01  4.52339E+01  4.51857E+01  4.51319E+01  4.50723E+01  4.50063E+01  4.49338E+01  4.48547E+01  4.47690E+01  4.46769E+01
   4.45786E+01  4.44744E+01  4.43649E+01  4.42506E+01  4.41320E+01  4.40099E+01  4.38849E+01  4.37576E+01  4.36289E+01  4.34992E+01
   4.33692E+01  4.32394E+01  4.31105E+01  4.29827E+01  4.28567E+01  4.27327E+01  4.26111E+01  4.24921E+01  4.23761E+01  4.22633E+01
   4.21538E+01  4.20477E+01  4.19451E+01  4.18461E+01  4.17506E+01  4.16584E+01  4.15693E+01  4.14829E+01  4.13989E+01  4.13165E+01
   4.12351E+01  4.11538E+01  4.10714E+01  4.09871E+01  4.08995E+01  4.08076E+01  4.07100E+01  4.06057E+01  4.04937E+01  4.03732E+01
   4.02436E+01  4.01046E+01  3.99560E+01  3.97980E+01  3.96313E+01  3.94563E+01  3.92742E+01  3.90859E+01  3.88927E+01  3.86958E+01
   3.84964E+01  3.82957E+01  3.80948E+01  3.78947E+01  3.76960E+01  3.74995E+01  3.73056E+01  3.71145E+01  3.69264E+01  3.67414E+01
   3.65594E+01  3.63801E+01  3.62034E+01  3.60290E+01  3.58566E+01  3.56860E+01  3.55169E+01  3.53490E+01  3.51821E+01  3.50159E+01
   3.48503E+01  3.46850E+01  3.45201E+01  3.43553E+01  3.41905E+01  3.40256E+01  3.38607E+01  3.36955E+01  3.35302E+01  3.33646E+01
   3.31986E+01  3.30324E+01  3.28659E+01  3.26990E+01  3.25317E+01  3.23641E+01  3.21962E+01  3.20279E+01  3.18592E+01  3.16902E+01
   3.15208E+01  3.13511E+01  3.11810E+01  3.10106E+01  3.08399E+01  3.06688E+01  3.04975E+01  3.03259E+01  3.01539E+01  2.99817E+01
   2.98093E+01  2.96366E+01  2.94636E+01  2.92904E+01  2.91170E+01  2.89434E+01  2.87696E+01  2.85957E+01  2.84216E+01  2.82473E+01
   2.80729E+01  2.78984E+01  2.77238E+01  2.75490E+01  2.73743E+01  2.71994E+01  2.70245E+01  2.68496E+01  2.66747E+01  2.64998E+01
   2.63250E+01  2.61502E+01  2.59754E+01  2.58008E+01  2.56263E+01  2.54519E+01  2.52777E+01  2.51037E+01  2.49300E+01  2.47565E+01
   2.45833E+01  2.44105E+01  2.42382E+01  2.40662E+01  2.38949E+01  2.37241E+01  2.35541E+01  2.33850E+01
 NY background values follow
     7.544E+01    7.514E+01    7.484E+01    7.454E+01    7.424E+01    7.394E+01    7.364E+01    7.335E+01    7.305E+01    7.275E+01
     7.245E+01    7.216E+01    7.186E+01    7.156E+01    7.127E+01    7.097E+01    7.068E+01    7.039E+01    7.009E+01    6.980E+01
     6.951E+01    6.922E+01    6.893E+01    6.864E+01    6.835E+01    6.806E+01    6.777E+01    6.749E+01    6.720E+01    6.691E+01
     6.663E+01    6.635E+01    6.607E+01    6.578E+01    6.551E+01    6.523E+01    6.495E+01    6.467E+01    6.440E+01    6.412E+01
     6.385E+01    6.358E+01    6.331E+01    6.304E+01    6.277E+01    6.250E+01    6.224E+01    6.198E+01    6.171E+01    6.145E+01
     6.119E+01    6.094E+01    6.068E+01    6.043E+01    6.017E+01    5.992E+01    5.967E+01    5.943E+01    5.918E+01    5.894E+01
     5.870E+01    5.845E+01    5.822E+01    5.798E+01    5.775E+01    5.751E+01    5.728E+01    5.705E+01    5.683E+01    5.660E+01
     5.638E+01    5.616E+01    5.594E+01    5.572E+01    5.551E+01    5.529E+01    5.508E+01    5.487E+01    5.467E+01    5.446E+01
     5.426E+01    5.406E+01    5.386E+01    5.367E+01    5.347E+01    5.328E+01    5.309E+01    5.291E+01    5.272E+01    5.254E+01
     5.236E+01    5.218E+01    5.200E+01    5.183E+01    5.166E+01    5.149E+01    5.132E+01    5.116E+01    5.100E+01    5.084E+01
     5.068E+01    5.053E+01    5.037E+01    5.022E+01    5.008E+01    4.993E+01    4.979E+01    4.965E+01    4.951E+01    4.937E+01
     4.924E+01    4.911E+01    4.898E+01    4.886E+01    4.874E+01    4.862E+01    4.850E+01    4.838E+01    4.827E+01    4.816E+01
     4.805E+01    4.795E+01    4.785E+01    4.775E+01    4.765E+01    4.756E+01    4.747E+01    4.738E+01    4.729E+01    4.721E+01
     4.713E+01    4.705E+01    4.698E+01    4.690E+01    4.683E+01    4.676E+01    4.670E+01    4.663E+01    4.657E+01    4.651E+01
     4.646E+01    4.640E+01    4.635E+01    4.630E+01    4.625E+01    4.621E+01    4.616E+01    4.612E+01    4.608E+01    4.604E+01
     4.601E+01    4.597E+01    4.594E+01    4.591E+01    4.588E+01    4.586E+01    4.583E+01    4.581E+01    4.579E+01    4.577E+01
     4.575E+01    4.573E+01    4.572E+01    4.570E+01    4.569E+01    4.568E+01    4.567E+01    4.567E+01    4.566E+01    4.566E+01
     4.565E+01    4.565E+01    4.565E+01    4.565E+01    4.565E+01    4.566E+01    4.566E+01    4.566E+01    4.567E+01    4.568E+01
     4.569E+01    4.570E+01    4.571E+01    4.572E+01    4.573E+01    4.575E+01    4.576E+01    4.577E+01    4.579E+01    4.581E+01
     4.582E+01    4.584E+01    4.586E+01    4.588E+01    4.590E+01    4.592E+01    4.594E+01    4.597E+01    4.599E+01    4.601E+01
     4.603E+01    4.606E+01    4.608E+01    4.611E+01    4.613E+01    4.616E+01    4.618E+01    4.621E+01    4.623E+01    4.626E+01
     4.629E+01    4.631E+01    4.634E+01    4.636E+01    4.639E+01    4.642E+01    4.644E+01    4.647E+01    4.650E+01    4.652E+01
     4.655E+01    4.658E+01    4.660E+01    4.663E+01    4.665E+01    4.668E+01    4.670E+01    4.673E+01    4.675E+01    4.678E+01
     4.680E+01    4.682E+01    4.685E+01    4.687E+01    4.689E+01    4.691E+01    4.693E+01    4.695E+01    4.697E+01    4.699E+01
     4.701E+01    4.702E+01    4.704E+01    4.705E+01    4.707E+01    4.708E+01    4.709E+01    4.711E+01    4.712E+01    4.713E+01
     4.714E+01    4.714E+01    4.715E+01    4.716E+01    4.716E+01    4.717E+01    4.717E+01    4.717E+01    4.717E+01    4.717E+01
     4.717E+01    4.717E+01    4.717E+01    4.717E+01    4.716E+01    4.716E+01    4.715E+01    4.715E+01    4.714E+01    4.713E+01
     4.712E+01    4.711E+01    4.710E+01    4.709E+01    4.708E+01    4.706E+01    4.705E+01    4.704E+01    4.702E+01    4.700E+01
     4.699E+01    4.697E+01    4.695E+01    4.693E+01    4.691E+01    4.689E+01    4.687E+01    4.685E+01    4.683E+01    4.680E+01
     4.678E+01    4.675E+01    4.673E+01    4.670E+01    4.668E+01    4.665E+01    4.662E+01    4.659E+01    4.656E+01    4.653E+01
     4.650E+01    4.647E+01    4.644E+01    4.641E+01    4.638E+01    4.634E+01    4.631E+01    4.628E+01    4.624E+01    4.621E+01
     4.617E+01    4.613E+01    4.610E+01    4.606E+01    4.602E+01    4.598E+01    4.594E+01    4.591E+01    4.587E+01    4.582E+01
     4.578E+01    4.574E+01    4.570E+01    4.566E+01    4.561E+01    4.557E+01    4.552E+01    4.547E+01    4.543E+01    4.538E+01
     4.533E+01    4.528E+01    4.523E+01    4.518E+01    4.513E+01    4.508E+01    4.502E+01    4.497E+01    4.491E+01    4.486E+01
     4.480E+01    4.474E+01    4.468E+01    4.462E+01    4.456E+01    4.450E+01    4.444E+01    4.437E+01    4.431E+01    4.424E+01
     4.417E+01    4.411E+01    4.404E+01    4.397E+01    4.389E+01    4.382E+01    4.375E+01    4.367E+01    4.360E+01    4.352E+01
     4.344E+01    4.336E+01    4.328E+01    4.319E+01    4.311E+01    4.303E+01    4.294E+01    4.285E+01    4.276E+01    4.267E+01
     4.258E+01    4.248E+01    4.239E+01    4.229E+01    4.220E+01    4.210E+01    4.200E+01    4.189E+01    4.179E+01    4.169E+01
     4.158E+01    4.147E+01    4.136E+01    4.125E+01    4.114E+01    4.103E+01    4.091E+01    4.080E+01    4.068E+01    4.056E+01
     4.045E+01    4.032E+01    4.020E+01    4.008E+01    3.996E+01    3.983E+01    3.971E+01    3.958E+01    3.945E+01    3.932E+01
     3.919E+01    3.906E+01    3.892E+01    3.879E+01    3.866E+01    3.852E+01    3.838E+01    3.825E+01    3.811E+01    3.797E+01
     3.783E+01    3.768E+01    3.754E+01    3.740E+01    3.725E+01    3.711E+01    3.696E+01    3.681E+01    3.666E+01    3.652E+01
     3.637E+01    3.621E+01    3.606E+01    3.591E+01    3.576E+01    3.560E+01    3.545E+01    3.529E+01    3.514E+01    3.498E+01
     3.482E+01    3.467E+01    3.451E+01    3.435E+01    3.419E+01    3.403E+01    3.386E+01    3.370E+01    3.354E+01    3.338E+01
     3.321E+01    3.305E+01    3.288E+01    3.272E+01    3.255E+01    3.239E+01    3.222E+01    3.205E+01    3.188E+01    3.172E+01
     3.155E+01    3.138E+01    3.121E+01    3.104E+01    3.087E+01    3.070E+01    3.052E+01    3.035E+01    3.018E+01    3.001E+01
     2.984E+01    2.966E+01    2.949E+01    2.932E+01    2.914E+01    2.897E+01    2.879E+01    2.862E+01    2.844E+01    2.827E+01
     2.809E+01    2.792E+01    2.774E+01    2.757E+01    2.739E+01    2.722E+01    2.704E+01    2.686E+01    2.669E+01    2.651E+01
     2.633E+01    2.616E+01    2.598E+01    2.581E+01    2.563E+01    2.545E+01    2.528E+01    2.510E+01    2.492E+01    2.475E+01
     2.457E+01    2.439E+01    2.422E+01    2.404E+01    2.386E+01    2.369E+01    2.351E+01    2.334E+01
 Asp      Conc. = 7.49E+01
