 LCModel (Version 6.3-1L) Copyright: S.W. Provencher.          Ref.: Magn. Reson. Med. 30:672-679 (1993).                
 Slice#2 Row#6 Col#14  K_02_press_1_raw_act
 36 lines in following concentration table = NCONC+1
    Conc.  %SD /Cr+PCr  Metabolite                                         
  269.325 207%   5.457 Ala                                                 
   41.481  79%   0.841 Asp                                                 
    0.000 999%   0.000 Cr                                                  
   49.351 157%   1.000 PCr                                                 
   26.000  75%   0.527 GABA                                                
   28.156  70%   0.571 Glc                                                 
 1.98E+03  27%  40.169 Gln                                                 
    0.000 999%   0.000 Glu                                                 
    0.000 999%   0.000 GPC                                                 
   72.117  38%   1.461 PCh                                                 
    0.000 999%   0.000 GSH                                                 
  339.049  85%   6.870 Ins                                                 
    0.000 999%   0.000 Lac                                                 
  602.195  21%  12.202 NAA                                                 
    0.000 999%   0.000 NAAG                                                
   13.094  49%   0.265 Scyllo                                              
   58.791  55%   1.191 Tau                                                 
    0.000 999%   0.000 -CrCH2                                              
   72.117  38%   1.461 GPC+PCh                                             
  602.195  21%  12.202 NAA+NAAG                                            
   49.351 157%   1.000 Cr+PCr                                              
 1.98E+03  27%  40.169 Glu+Gln                                             
 6.05E+04  10% 1.2E+03 Lip13a                                              
    0.000 999%   0.000 Lip13b                                              
 9.82E+03  13% 198.908 Lip09                                               
 4.30E+03  19%  87.147 MM09                                                
  258.237 195%   5.233-Lip20                                               
 1.83E+03  32%  37.170 MM20                                                
 3.02E+03  28%  61.125 MM12                                                
 2.94E+04  12% 596.323+MM14                                                
 2.86E+04   9% 578.758+MM17                                                
 6.05E+04  10% 1.2E+03 Lip13a+Lip13b                                       
 9.30E+04   5% 1.9E+03 MM14+Lip13a+Lip13b+MM12                             
 1.41E+04  11% 286.055 MM09+Lip09                                          
 2.09E+03  22%  42.403 MM20+Lip20                                          
   6 lines in following misc. output table
  FWHM = 0.183 ppm    S/N =  43                                            
  Data shift = 0.290 ppm                                                   
  Ph:-113 deg     -44.0 deg/ppm                                            
  alphaB,S = 8.5E+01,   3.0E+02                                            
    6 spline knots.   Ns = 9(2)                                            
  ( 9) 3 infls.   ( 8) 1 extrs.                                            
  498 points on ppm-axis = NY
      4.000000     3.992357     3.984714     3.977070     3.969427     3.961784     3.954141     3.946497     3.938854     3.931211
      3.923568     3.915925     3.908281     3.900638     3.892995     3.885352     3.877708     3.870065     3.862422     3.854779
      3.847136     3.839492     3.831849     3.824206     3.816563     3.808919     3.801276     3.793633     3.785990     3.778347
      3.770703     3.763060     3.755417     3.747774     3.740130     3.732487     3.724844     3.717201     3.709558     3.701914
      3.694271     3.686628     3.678985     3.671341     3.663698     3.656055     3.648412     3.640769     3.633125     3.625482
      3.617839     3.610196     3.602552     3.594909     3.587266     3.579623     3.571980     3.564336     3.556693     3.549050
      3.541407     3.533763     3.526120     3.518477     3.510834     3.503191     3.495547     3.487904     3.480261     3.472618
      3.464974     3.457331     3.449688     3.442045     3.434402     3.426758     3.419115     3.411472     3.403829     3.396185
      3.388542     3.380899     3.373256     3.365613     3.357969     3.350326     3.342683     3.335040     3.327396     3.319753
      3.312110     3.304467     3.296824     3.289180     3.281537     3.273894     3.266251     3.258607     3.250964     3.243321
      3.235678     3.228034     3.220391     3.212748     3.205105     3.197462     3.189818     3.182175     3.174532     3.166889
      3.159245     3.151602     3.143959     3.136316     3.128673     3.121029     3.113386     3.105743     3.098100     3.090456
      3.082813     3.075170     3.067527     3.059884     3.052240     3.044597     3.036954     3.029311     3.021667     3.014024
      3.006381     2.998738     2.991095     2.983451     2.975808     2.968165     2.960522     2.952878     2.945235     2.937592
      2.929949     2.922306     2.914662     2.907019     2.899376     2.891733     2.884089     2.876446     2.868803     2.861160
      2.853517     2.845873     2.838230     2.830587     2.822944     2.815300     2.807657     2.800014     2.792371     2.784728
      2.777084     2.769441     2.761798     2.754155     2.746511     2.738868     2.731225     2.723582     2.715939     2.708295
      2.700652     2.693009     2.685366     2.677722     2.670079     2.662436     2.654793     2.647150     2.639506     2.631863
      2.624220     2.616577     2.608933     2.601290     2.593647     2.586004     2.578361     2.570717     2.563074     2.555431
      2.547788     2.540144     2.532501     2.524858     2.517215     2.509572     2.501928     2.494285     2.486642     2.478999
      2.471355     2.463712     2.456069     2.448426     2.440783     2.433139     2.425496     2.417853     2.410210     2.402566
      2.394923     2.387280     2.379637     2.371994     2.364350     2.356707     2.349064     2.341421     2.333777     2.326134
      2.318491     2.310848     2.303205     2.295561     2.287918     2.280275     2.272632     2.264988     2.257345     2.249702
      2.242059     2.234416     2.226772     2.219129     2.211486     2.203843     2.196199     2.188556     2.180913     2.173270
      2.165627     2.157983     2.150340     2.142697     2.135054     2.127410     2.119767     2.112124     2.104481     2.096838
      2.089194     2.081551     2.073908     2.066265     2.058621     2.050978     2.043335     2.035692     2.028049     2.020405
      2.012762     2.005119     1.997476     1.989833     1.982190     1.974546     1.966903     1.959260     1.951617     1.943974
      1.936331     1.928688     1.921045     1.913402     1.905759     1.898115     1.890472     1.882829     1.875186     1.867543
      1.859900     1.852257     1.844614     1.836971     1.829327     1.821684     1.814041     1.806398     1.798755     1.791112
      1.783469     1.775826     1.768183     1.760540     1.752896     1.745253     1.737610     1.729967     1.722324     1.714681
      1.707038     1.699395     1.691752     1.684108     1.676465     1.668822     1.661179     1.653536     1.645893     1.638250
      1.630607     1.622964     1.615321     1.607677     1.600034     1.592391     1.584748     1.577105     1.569462     1.561819
      1.554176     1.546533     1.538890     1.531246     1.523603     1.515960     1.508317     1.500674     1.493031     1.485388
      1.477745     1.470102     1.462458     1.454815     1.447172     1.439529     1.431886     1.424243     1.416600     1.408957
      1.401314     1.393671     1.386027     1.378384     1.370741     1.363098     1.355455     1.347812     1.340169     1.332526
      1.324883     1.317240     1.309596     1.301953     1.294310     1.286667     1.279024     1.271381     1.263738     1.256095
      1.248452     1.240808     1.233165     1.225522     1.217879     1.210236     1.202593     1.194950     1.187307     1.179664
      1.172021     1.164377     1.156734     1.149091     1.141448     1.133805     1.126162     1.118519     1.110876     1.103233
      1.095590     1.087946     1.080303     1.072660     1.065017     1.057374     1.049731     1.042088     1.034445     1.026802
      1.019158     1.011515     1.003872     0.996229     0.988586     0.980943     0.973300     0.965657     0.958014     0.950371
      0.942727     0.935084     0.927441     0.919798     0.912155     0.904512     0.896869     0.889226     0.881583     0.873940
      0.866296     0.858653     0.851010     0.843367     0.835724     0.828081     0.820438     0.812795     0.805152     0.797508
      0.789865     0.782222     0.774579     0.766936     0.759293     0.751650     0.744007     0.736364     0.728721     0.721077
      0.713434     0.705791     0.698148     0.690505     0.682862     0.675219     0.667576     0.659933     0.652290     0.644646
      0.637003     0.629360     0.621717     0.614074     0.606431     0.598788     0.591145     0.583502     0.575858     0.568215
      0.560572     0.552929     0.545286     0.537643     0.530000     0.522357     0.514714     0.507071     0.499427     0.491784
      0.484141     0.476498     0.468855     0.461212     0.453569     0.445925     0.438282     0.430639     0.422996     0.415353
      0.407710     0.400067     0.392424     0.384780     0.377137     0.369494     0.361851     0.354208     0.346565     0.338922
      0.331278     0.323635     0.315992     0.308349     0.300706     0.293063     0.285420     0.277777     0.270133     0.262490
      0.254847     0.247204     0.239561     0.231918     0.224275     0.216631     0.208988     0.201345
 NY phased data points follow
   3.01597E+01  2.98032E+01  3.07500E+01  2.89604E+01  3.02002E+01  2.85220E+01  2.88480E+01  2.83697E+01  2.90246E+01  3.07468E+01
   3.04660E+01  2.82766E+01  3.03626E+01  3.01073E+01  3.05137E+01  2.94240E+01  2.93196E+01  2.98433E+01  3.06217E+01  2.99494E+01
   2.85436E+01  3.24455E+01  3.12684E+01  3.09400E+01  3.05496E+01  2.94848E+01  3.05583E+01  3.18836E+01  2.91188E+01  2.91033E+01
   3.12850E+01  3.12016E+01  2.99011E+01  3.24110E+01  3.13690E+01  2.92104E+01  2.94869E+01  3.27700E+01  3.05113E+01  3.19667E+01
   3.24448E+01  3.02163E+01  3.04105E+01  2.87498E+01  3.08745E+01  3.19921E+01  3.07259E+01  3.11441E+01  2.96463E+01  3.25559E+01
   3.14393E+01  3.20051E+01  3.19327E+01  3.22167E+01  3.00270E+01  3.24356E+01  3.17419E+01  3.26042E+01  3.27550E+01  3.08399E+01
   3.31970E+01  3.36768E+01  3.33346E+01  3.31447E+01  3.38480E+01  3.32506E+01  3.31311E+01  3.23640E+01  3.20510E+01  3.30780E+01
   3.52168E+01  3.60730E+01  3.42612E+01  3.48083E+01  3.31374E+01  3.58059E+01  3.43841E+01  3.40548E+01  3.45732E+01  3.49300E+01
   3.46394E+01  3.48594E+01  3.49737E+01  3.44770E+01  3.60153E+01  3.69918E+01  3.53355E+01  3.62211E+01  3.82766E+01  3.39551E+01
   3.42826E+01  3.51663E+01  3.63455E+01  3.39406E+01  3.72570E+01  3.83141E+01  3.79518E+01  3.72928E+01  3.97638E+01  3.80618E+01
   3.91158E+01  3.64097E+01  3.64663E+01  3.42376E+01  3.77129E+01  3.50827E+01  3.75438E+01  3.80239E+01  3.85087E+01  3.79710E+01
   3.85251E+01  3.69975E+01  3.79731E+01  3.76495E+01  4.06880E+01  3.95892E+01  3.91179E+01  3.54572E+01  3.77599E+01  3.82873E+01
   3.96925E+01  3.59378E+01  3.84032E+01  3.86992E+01  3.80697E+01  4.01834E+01  3.99716E+01  3.97604E+01  3.88601E+01  3.89650E+01
   3.91749E+01  3.83557E+01  4.00341E+01  3.87137E+01  3.96351E+01  4.13158E+01  4.15450E+01  4.02904E+01  3.96110E+01  3.74058E+01
   3.97435E+01  4.02172E+01  3.76884E+01  4.11958E+01  3.80052E+01  4.19663E+01  4.05907E+01  4.10598E+01  3.92417E+01  3.91831E+01
   3.93641E+01  4.05074E+01  3.88991E+01  3.87704E+01  3.89716E+01  3.71947E+01  4.15249E+01  4.07808E+01  3.84913E+01  4.08548E+01
   4.06537E+01  4.14438E+01  4.07614E+01  4.16378E+01  3.96978E+01  4.03991E+01  4.23679E+01  4.14032E+01  4.16909E+01  4.08160E+01
   4.09509E+01  4.30596E+01  4.10613E+01  3.94534E+01  4.30768E+01  3.90451E+01  3.96514E+01  3.99208E+01  4.43325E+01  4.24466E+01
   4.08363E+01  4.17726E+01  4.07395E+01  4.09284E+01  4.16815E+01  4.32087E+01  4.04860E+01  4.30881E+01  4.26872E+01  4.08922E+01
   3.97315E+01  4.33374E+01  4.09343E+01  4.19916E+01  4.24100E+01  4.27174E+01  4.36914E+01  4.29502E+01  4.40749E+01  4.44217E+01
   4.45331E+01  4.14487E+01  4.05408E+01  4.52366E+01  4.50729E+01  4.73977E+01  4.50427E+01  4.60976E+01  4.78519E+01  4.57045E+01
   4.71916E+01  4.76632E+01  4.65662E+01  4.74601E+01  4.58340E+01  5.19034E+01  4.96997E+01  5.06655E+01  4.98377E+01  5.34718E+01
   5.26172E+01  5.21502E+01  5.26157E+01  5.21013E+01  5.07237E+01  5.02569E+01  5.34819E+01  5.52859E+01  5.67576E+01  5.85549E+01
   5.69155E+01  5.97394E+01  6.24655E+01  6.01866E+01  6.30707E+01  6.11436E+01  6.21298E+01  6.23928E+01  6.39742E+01  6.44302E+01
   6.37199E+01  6.59481E+01  6.80101E+01  6.66419E+01  6.65810E+01  6.84575E+01  7.01539E+01  7.19161E+01  7.40315E+01  7.41174E+01
   7.54827E+01  7.64596E+01  7.77240E+01  7.85490E+01  8.20419E+01  8.08974E+01  8.26328E+01  8.43154E+01  8.57683E+01  8.81309E+01
   9.12353E+01  9.27632E+01  9.65909E+01  9.69691E+01  9.90111E+01  1.02802E+02  1.06253E+02  1.07154E+02  1.09440E+02  1.13303E+02
   1.16902E+02  1.19375E+02  1.22603E+02  1.27741E+02  1.31850E+02  1.35689E+02  1.40560E+02  1.43756E+02  1.47880E+02  1.52915E+02
   1.58182E+02  1.60847E+02  1.69426E+02  1.73666E+02  1.79106E+02  1.85277E+02  1.87936E+02  1.95614E+02  1.97619E+02  2.05381E+02
   2.10813E+02  2.14437E+02  2.18531E+02  2.23430E+02  2.28831E+02  2.31917E+02  2.36979E+02  2.34817E+02  2.37724E+02  2.38871E+02
   2.39708E+02  2.41166E+02  2.39674E+02  2.37526E+02  2.40074E+02  2.39742E+02  2.39340E+02  2.38497E+02  2.37192E+02  2.37626E+02
   2.36402E+02  2.36829E+02  2.34126E+02  2.33943E+02  2.30671E+02  2.29985E+02  2.28699E+02  2.28260E+02  2.26017E+02  2.22946E+02
   2.21382E+02  2.21188E+02  2.19488E+02  2.18048E+02  2.19786E+02  2.19376E+02  2.19262E+02  2.16259E+02  2.16714E+02  2.17013E+02
   2.13708E+02  2.18260E+02  2.15158E+02  2.14822E+02  2.14628E+02  2.12571E+02  2.12324E+02  2.10327E+02  2.12563E+02  2.12050E+02
   2.09235E+02  2.11612E+02  2.10216E+02  2.09341E+02  2.13581E+02  2.08722E+02  2.07989E+02  2.06173E+02  2.06150E+02  2.05688E+02
   2.03248E+02  2.02791E+02  2.02563E+02  2.03396E+02  1.98724E+02  1.97484E+02  1.97202E+02  1.96102E+02  1.92626E+02  1.90318E+02
   1.91257E+02  1.86015E+02  1.84827E+02  1.83593E+02  1.83822E+02  1.82224E+02  1.78319E+02  1.75934E+02  1.73397E+02  1.71871E+02
   1.68270E+02  1.66424E+02  1.63440E+02  1.62460E+02  1.59360E+02  1.60739E+02  1.55730E+02  1.52597E+02  1.51864E+02  1.49148E+02
   1.48898E+02  1.45333E+02  1.42762E+02  1.42997E+02  1.38848E+02  1.38268E+02  1.35932E+02  1.32535E+02  1.31506E+02  1.28326E+02
   1.26155E+02  1.25663E+02  1.24636E+02  1.22735E+02  1.19781E+02  1.18384E+02  1.15237E+02  1.14738E+02  1.13625E+02  1.11894E+02
   1.08313E+02  1.07825E+02  1.05500E+02  1.02381E+02  1.00428E+02  9.98075E+01  9.86440E+01  9.81048E+01  9.53749E+01  9.29199E+01
   9.19618E+01  9.19560E+01  8.98038E+01  8.96460E+01  8.72640E+01  8.51352E+01  8.24822E+01  8.19863E+01  7.96415E+01  8.00654E+01
   7.82548E+01  7.82686E+01  7.65297E+01  7.57843E+01  7.23004E+01  7.17400E+01  7.13792E+01  7.12040E+01  6.85024E+01  6.85455E+01
   6.97203E+01  6.68310E+01  6.45692E+01  6.51928E+01  6.39141E+01  6.20438E+01  6.28921E+01  6.09493E+01  6.09348E+01  5.94410E+01
   5.89300E+01  5.71071E+01  5.93694E+01  5.74923E+01  5.73164E+01  5.34510E+01  5.46037E+01  5.23985E+01  5.34033E+01  5.03053E+01
   5.18611E+01  5.19952E+01  5.16899E+01  4.94069E+01  4.91589E+01  4.84465E+01  4.89147E+01  4.82976E+01  4.77847E+01  4.81259E+01
   4.54952E+01  4.52666E+01  4.80467E+01  4.36299E+01  4.56152E+01  4.51585E+01  4.47727E+01  4.44651E+01  4.57895E+01  4.23987E+01
   4.17043E+01  4.26787E+01  4.11274E+01  4.30543E+01  4.13163E+01  4.14123E+01  4.11688E+01  3.87797E+01  4.00895E+01  4.04659E+01
   3.78676E+01  4.02572E+01  3.77377E+01  3.93182E+01  3.92619E+01  4.01594E+01  3.96766E+01  3.55041E+01  3.71293E+01  3.67552E+01
   3.86796E+01  3.79636E+01  3.72234E+01  3.63138E+01  3.76303E+01  3.76297E+01  3.78447E+01  3.55570E+01
 NY points of the fit to the data follow
   2.84151E+01  2.85440E+01  2.86521E+01  2.87626E+01  2.88528E+01  2.89505E+01  2.90348E+01  2.91502E+01  2.92135E+01  2.92957E+01
   2.93349E+01  2.93720E+01  2.93888E+01  2.93778E+01  2.94492E+01  2.94569E+01  2.95877E+01  2.95911E+01  2.97878E+01  2.97883E+01
   3.00045E+01  3.00311E+01  3.02434E+01  3.02799E+01  3.04540E+01  3.04732E+01  3.05978E+01  3.05889E+01  3.06915E+01  3.06855E+01
   3.08224E+01  3.08631E+01  3.10463E+01  3.11077E+01  3.13069E+01  3.13842E+01  3.15626E+01  3.16539E+01  3.17755E+01  3.18733E+01
   3.19169E+01  3.20388E+01  3.20389E+01  3.22377E+01  3.22357E+01  3.25486E+01  3.25282E+01  3.29112E+01  3.27564E+01  3.29635E+01
   3.27307E+01  3.28206E+01  3.26596E+01  3.27285E+01  3.28625E+01  3.29927E+01  3.31767E+01  3.32310E+01  3.33787E+01  3.33386E+01
   3.34106E+01  3.33916E+01  3.34577E+01  3.34236E+01  3.34734E+01  3.34229E+01  3.34621E+01  3.34173E+01  3.34837E+01  3.34850E+01
   3.36169E+01  3.36410E+01  3.37782E+01  3.37833E+01  3.39117E+01  3.38993E+01  3.40108E+01  3.39823E+01  3.40756E+01  3.40441E+01
   3.41221E+01  3.41017E+01  3.41850E+01  3.41723E+01  3.42535E+01  3.42737E+01  3.43945E+01  3.44204E+01  3.45840E+01  3.46069E+01
   3.48308E+01  3.48356E+01  3.51260E+01  3.50910E+01  3.54445E+01  3.53708E+01  3.57601E+01  3.56535E+01  3.60718E+01  3.59428E+01
   3.63869E+01  3.62483E+01  3.67326E+01  3.65864E+01  3.71262E+01  3.69652E+01  3.75580E+01  3.73677E+01  3.80077E+01  3.77815E+01
   3.84073E+01  3.81359E+01  3.87241E+01  3.84269E+01  3.89544E+01  3.86474E+01  3.90842E+01  3.87733E+01  3.90803E+01  3.87824E+01
   3.89217E+01  3.86832E+01  3.86693E+01  3.85683E+01  3.85046E+01  3.86347E+01  3.86768E+01  3.88569E+01  3.89070E+01  3.90999E+01
   3.91456E+01  3.93355E+01  3.93689E+01  3.95444E+01  3.95635E+01  3.97168E+01  3.97215E+01  3.98467E+01  3.98386E+01  3.99327E+01
   3.99139E+01  3.99714E+01  3.99439E+01  3.99563E+01  3.99281E+01  3.99062E+01  3.98927E+01  3.98730E+01  3.98901E+01  3.99178E+01
   3.99510E+01  3.99906E+01  4.00298E+01  4.00781E+01  4.01191E+01  4.01706E+01  4.02109E+01  4.02594E+01  4.02951E+01  4.03370E+01
   4.03725E+01  4.04113E+01  4.04486E+01  4.04808E+01  4.05202E+01  4.05492E+01  4.05976E+01  4.06277E+01  4.06849E+01  4.07135E+01
   4.07791E+01  4.08129E+01  4.08888E+01  4.09319E+01  4.10222E+01  4.10762E+01  4.11690E+01  4.12344E+01  4.13114E+01  4.13730E+01
   4.14284E+01  4.14744E+01  4.15072E+01  4.15625E+01  4.16297E+01  4.17488E+01  4.18734E+01  4.21104E+01  4.22894E+01  4.26156E+01
   4.28073E+01  4.31531E+01  4.31946E+01  4.35475E+01  4.34688E+01  4.38169E+01  4.36181E+01  4.39844E+01  4.37298E+01  4.41594E+01
   4.39598E+01  4.44926E+01  4.43859E+01  4.50133E+01  4.49869E+01  4.56852E+01  4.56880E+01  4.64048E+01  4.63959E+01  4.71032E+01
   4.71153E+01  4.78322E+01  4.78994E+01  4.86238E+01  4.87463E+01  4.94547E+01  4.95809E+01  5.02176E+01  5.02691E+01  5.08251E+01
   5.09254E+01  5.15026E+01  5.17986E+01  5.26119E+01  5.32535E+01  5.42534E+01  5.51309E+01  5.62035E+01  5.71153E+01  5.79783E+01
   5.86527E+01  5.91628E+01  5.94312E+01  5.98613E+01  6.02137E+01  6.06654E+01  6.11210E+01  6.16876E+01  6.22834E+01  6.29691E+01
   6.37221E+01  6.45006E+01  6.55563E+01  6.64759E+01  6.77472E+01  6.87631E+01  7.02105E+01  7.13099E+01  7.28714E+01  7.40610E+01
   7.56821E+01  7.69461E+01  7.85909E+01  7.98988E+01  8.15226E+01  8.28554E+01  8.44395E+01  8.58538E+01  8.73439E+01  8.91376E+01
   9.08274E+01  9.31676E+01  9.50862E+01  9.79432E+01  9.99553E+01  1.02967E+02  1.05037E+02  1.08188E+02  1.10325E+02  1.13682E+02
   1.16036E+02  1.19692E+02  1.22411E+02  1.26492E+02  1.29636E+02  1.34082E+02  1.37656E+02  1.42404E+02  1.46500E+02  1.51536E+02
   1.56365E+02  1.61780E+02  1.67506E+02  1.73339E+02  1.79202E+02  1.85035E+02  1.90783E+02  1.96388E+02  2.01795E+02  2.06952E+02
   2.11813E+02  2.16335E+02  2.20484E+02  2.24235E+02  2.27569E+02  2.30480E+02  2.32964E+02  2.35033E+02  2.36700E+02  2.37989E+02
   2.38923E+02  2.39536E+02  2.39859E+02  2.39926E+02  2.39769E+02  2.39422E+02  2.38913E+02  2.38274E+02  2.37532E+02  2.36713E+02
   2.35787E+02  2.34828E+02  2.33761E+02  2.32699E+02  2.31514E+02  2.30366E+02  2.29079E+02  2.27896E+02  2.26574E+02  2.25392E+02
   2.24085E+02  2.22950E+02  2.21716E+02  2.20676E+02  2.19557E+02  2.18643E+02  2.17658E+02  2.16880E+02  2.16036E+02  2.15396E+02
   2.14692E+02  2.14188E+02  2.13624E+02  2.13247E+02  2.12813E+02  2.12533E+02  2.12206E+02  2.11972E+02  2.11708E+02  2.11457E+02
   2.11199E+02  2.10862E+02  2.10558E+02  2.10082E+02  2.09699E+02  2.09066E+02  2.08574E+02  2.07786E+02  2.07136E+02  2.06173E+02
   2.05223E+02  2.03972E+02  2.02745E+02  2.01259E+02  1.99791E+02  1.98155E+02  1.96520E+02  1.94874E+02  1.93198E+02  1.91486E+02
   1.89737E+02  1.87947E+02  1.86110E+02  1.84223E+02  1.82280E+02  1.80278E+02  1.78214E+02  1.76086E+02  1.73897E+02  1.71651E+02
   1.69358E+02  1.67027E+02  1.64673E+02  1.62311E+02  1.59957E+02  1.57629E+02  1.55340E+02  1.53103E+02  1.50930E+02  1.48825E+02
   1.46790E+02  1.44824E+02  1.42920E+02  1.41067E+02  1.39255E+02  1.37467E+02  1.35692E+02  1.33913E+02  1.32118E+02  1.30298E+02
   1.28445E+02  1.26554E+02  1.24626E+02  1.22662E+02  1.20670E+02  1.18656E+02  1.16632E+02  1.14607E+02  1.12595E+02  1.10606E+02
   1.08651E+02  1.06738E+02  1.04875E+02  1.03068E+02  1.01320E+02  9.96315E+01  9.80037E+01  9.64341E+01  9.49196E+01  9.34560E+01
   9.20387E+01  9.06622E+01  8.93215E+01  8.80111E+01  8.67264E+01  8.54628E+01  8.42166E+01  8.29846E+01  8.17642E+01  8.05535E+01
   7.93513E+01  7.81571E+01  7.69706E+01  7.57922E+01  7.46226E+01  7.34628E+01  7.23142E+01  7.11781E+01  7.00561E+01  6.89497E+01
   6.78606E+01  6.67902E+01  6.57400E+01  6.47112E+01  6.37051E+01  6.27227E+01  6.17647E+01  6.08320E+01  5.99251E+01  5.90443E+01
   5.81898E+01  5.73617E+01  5.65600E+01  5.57845E+01  5.50348E+01  5.43108E+01  5.36117E+01  5.29372E+01  5.22867E+01  5.16595E+01
   5.10549E+01  5.04723E+01  4.99109E+01  4.93701E+01  4.88490E+01  4.83469E+01  4.78632E+01  4.73970E+01  4.69477E+01  4.65147E+01
   4.60971E+01  4.56944E+01  4.53060E+01  4.49312E+01  4.45694E+01  4.42201E+01  4.38827E+01  4.35567E+01  4.32415E+01  4.29369E+01
   4.26421E+01  4.23569E+01  4.20808E+01  4.18134E+01  4.15544E+01  4.13033E+01  4.10598E+01  4.08237E+01  4.05945E+01  4.03720E+01
   4.01559E+01  3.99460E+01  3.97419E+01  3.95435E+01  3.93506E+01  3.91628E+01  3.89800E+01  3.88021E+01  3.86288E+01  3.84599E+01
   3.82953E+01  3.81349E+01  3.79785E+01  3.78259E+01  3.76771E+01  3.75320E+01  3.73904E+01  3.72524E+01
 NY background values follow
     4.588E+01    4.593E+01    4.598E+01    4.604E+01    4.609E+01    4.614E+01    4.619E+01    4.624E+01    4.629E+01    4.634E+01
     4.639E+01    4.644E+01    4.649E+01    4.654E+01    4.659E+01    4.664E+01    4.669E+01    4.674E+01    4.679E+01    4.684E+01
     4.688E+01    4.693E+01    4.698E+01    4.703E+01    4.707E+01    4.712E+01    4.717E+01    4.721E+01    4.726E+01    4.730E+01
     4.735E+01    4.740E+01    4.744E+01    4.749E+01    4.753E+01    4.757E+01    4.762E+01    4.766E+01    4.771E+01    4.775E+01
     4.779E+01    4.784E+01    4.788E+01    4.792E+01    4.796E+01    4.801E+01    4.805E+01    4.809E+01    4.813E+01    4.817E+01
     4.821E+01    4.826E+01    4.830E+01    4.834E+01    4.838E+01    4.842E+01    4.846E+01    4.850E+01    4.853E+01    4.857E+01
     4.861E+01    4.865E+01    4.869E+01    4.873E+01    4.876E+01    4.880E+01    4.884E+01    4.888E+01    4.891E+01    4.895E+01
     4.899E+01    4.902E+01    4.906E+01    4.910E+01    4.913E+01    4.917E+01    4.920E+01    4.924E+01    4.927E+01    4.931E+01
     4.934E+01    4.937E+01    4.941E+01    4.944E+01    4.947E+01    4.951E+01    4.954E+01    4.957E+01    4.961E+01    4.964E+01
     4.967E+01    4.970E+01    4.973E+01    4.976E+01    4.980E+01    4.983E+01    4.986E+01    4.989E+01    4.992E+01    4.995E+01
     4.998E+01    5.001E+01    5.004E+01    5.007E+01    5.009E+01    5.012E+01    5.015E+01    5.018E+01    5.021E+01    5.024E+01
     5.026E+01    5.029E+01    5.032E+01    5.034E+01    5.037E+01    5.040E+01    5.042E+01    5.045E+01    5.048E+01    5.050E+01
     5.053E+01    5.055E+01    5.058E+01    5.060E+01    5.063E+01    5.065E+01    5.067E+01    5.070E+01    5.072E+01    5.075E+01
     5.077E+01    5.079E+01    5.081E+01    5.084E+01    5.086E+01    5.088E+01    5.090E+01    5.093E+01    5.095E+01    5.097E+01
     5.099E+01    5.101E+01    5.103E+01    5.105E+01    5.107E+01    5.109E+01    5.111E+01    5.113E+01    5.115E+01    5.117E+01
     5.119E+01    5.121E+01    5.123E+01    5.124E+01    5.126E+01    5.128E+01    5.130E+01    5.132E+01    5.133E+01    5.135E+01
     5.137E+01    5.138E+01    5.140E+01    5.142E+01    5.143E+01    5.145E+01    5.146E+01    5.148E+01    5.150E+01    5.151E+01
     5.153E+01    5.154E+01    5.155E+01    5.157E+01    5.158E+01    5.160E+01    5.161E+01    5.162E+01    5.164E+01    5.165E+01
     5.166E+01    5.168E+01    5.169E+01    5.170E+01    5.171E+01    5.172E+01    5.173E+01    5.175E+01    5.176E+01    5.177E+01
     5.178E+01    5.179E+01    5.180E+01    5.181E+01    5.182E+01    5.183E+01    5.184E+01    5.185E+01    5.186E+01    5.187E+01
     5.187E+01    5.188E+01    5.189E+01    5.190E+01    5.191E+01    5.191E+01    5.192E+01    5.193E+01    5.194E+01    5.194E+01
     5.195E+01    5.196E+01    5.196E+01    5.197E+01    5.197E+01    5.198E+01    5.198E+01    5.199E+01    5.199E+01    5.200E+01
     5.200E+01    5.201E+01    5.201E+01    5.201E+01    5.202E+01    5.202E+01    5.202E+01    5.203E+01    5.203E+01    5.203E+01
     5.203E+01    5.204E+01    5.204E+01    5.204E+01    5.204E+01    5.204E+01    5.204E+01    5.204E+01    5.204E+01    5.204E+01
     5.204E+01    5.204E+01    5.204E+01    5.204E+01    5.204E+01    5.204E+01    5.204E+01    5.204E+01    5.204E+01    5.203E+01
     5.203E+01    5.203E+01    5.203E+01    5.202E+01    5.202E+01    5.202E+01    5.201E+01    5.201E+01    5.201E+01    5.200E+01
     5.200E+01    5.199E+01    5.199E+01    5.198E+01    5.198E+01    5.197E+01    5.197E+01    5.196E+01    5.196E+01    5.195E+01
     5.194E+01    5.194E+01    5.193E+01    5.192E+01    5.191E+01    5.191E+01    5.190E+01    5.189E+01    5.188E+01    5.187E+01
     5.186E+01    5.185E+01    5.185E+01    5.184E+01    5.183E+01    5.182E+01    5.181E+01    5.180E+01    5.178E+01    5.177E+01
     5.176E+01    5.175E+01    5.174E+01    5.173E+01    5.172E+01    5.170E+01    5.169E+01    5.168E+01    5.167E+01    5.165E+01
     5.164E+01    5.162E+01    5.161E+01    5.160E+01    5.158E+01    5.157E+01    5.155E+01    5.154E+01    5.152E+01    5.151E+01
     5.149E+01    5.148E+01    5.146E+01    5.144E+01    5.143E+01    5.141E+01    5.139E+01    5.138E+01    5.136E+01    5.134E+01
     5.132E+01    5.130E+01    5.129E+01    5.127E+01    5.125E+01    5.123E+01    5.121E+01    5.119E+01    5.117E+01    5.115E+01
     5.113E+01    5.111E+01    5.109E+01    5.107E+01    5.105E+01    5.102E+01    5.100E+01    5.098E+01    5.096E+01    5.094E+01
     5.091E+01    5.089E+01    5.087E+01    5.084E+01    5.082E+01    5.080E+01    5.077E+01    5.075E+01    5.072E+01    5.070E+01
     5.068E+01    5.065E+01    5.062E+01    5.060E+01    5.057E+01    5.055E+01    5.052E+01    5.049E+01    5.047E+01    5.044E+01
     5.041E+01    5.039E+01    5.036E+01    5.033E+01    5.030E+01    5.027E+01    5.025E+01    5.022E+01    5.019E+01    5.016E+01
     5.013E+01    5.010E+01    5.007E+01    5.004E+01    5.001E+01    4.998E+01    4.995E+01    4.992E+01    4.989E+01    4.985E+01
     4.982E+01    4.979E+01    4.976E+01    4.973E+01    4.969E+01    4.966E+01    4.963E+01    4.960E+01    4.956E+01    4.953E+01
     4.949E+01    4.946E+01    4.943E+01    4.939E+01    4.936E+01    4.932E+01    4.929E+01    4.925E+01    4.922E+01    4.918E+01
     4.914E+01    4.911E+01    4.907E+01    4.903E+01    4.900E+01    4.896E+01    4.892E+01    4.889E+01    4.885E+01    4.881E+01
     4.877E+01    4.873E+01    4.870E+01    4.866E+01    4.862E+01    4.858E+01    4.854E+01    4.850E+01    4.846E+01    4.842E+01
     4.838E+01    4.834E+01    4.830E+01    4.826E+01    4.822E+01    4.817E+01    4.813E+01    4.809E+01    4.805E+01    4.801E+01
     4.797E+01    4.792E+01    4.788E+01    4.784E+01    4.779E+01    4.775E+01    4.771E+01    4.766E+01    4.762E+01    4.757E+01
     4.753E+01    4.749E+01    4.744E+01    4.740E+01    4.735E+01    4.731E+01    4.726E+01    4.721E+01    4.717E+01    4.712E+01
     4.708E+01    4.703E+01    4.698E+01    4.694E+01    4.689E+01    4.684E+01    4.679E+01    4.675E+01    4.670E+01    4.665E+01
     4.660E+01    4.655E+01    4.650E+01    4.645E+01    4.641E+01    4.636E+01    4.631E+01    4.626E+01    4.621E+01    4.616E+01
     4.611E+01    4.606E+01    4.601E+01    4.595E+01    4.590E+01    4.585E+01    4.580E+01    4.575E+01    4.570E+01    4.565E+01
     4.559E+01    4.554E+01    4.549E+01    4.544E+01    4.538E+01    4.533E+01    4.528E+01    4.522E+01    4.517E+01    4.511E+01
     4.506E+01    4.501E+01    4.495E+01    4.490E+01    4.484E+01    4.479E+01    4.473E+01    4.468E+01
 Ala      Conc. = 2.69E+02
