 LCModel (Version 6.3-1L) Copyright: S.W. Provencher.          Ref.: Magn. Reson. Med. 30:672-679 (1993).                
 Slice#2 Row#4 Col#12  K_02_press_1_raw_act
 36 lines in following concentration table = NCONC+1
    Conc.  %SD /Cr+PCr  Metabolite                                         
    0.000 999%   0.000 Ala                                                 
   62.625  20% 7.5E-02 Asp                                                 
    0.000 999%   0.000 Cr                                                  
  835.070  16%   1.000 PCr                                                 
   37.574  20% 4.5E-02 GABA                                                
   37.574  20% 4.5E-02 Glc                                                 
    0.000 999%   0.000 Gln                                                 
 1.24E+04  12%  14.863 Glu                                                 
    0.000 999%   0.000 GPC                                                 
  139.136  37%   0.167 PCh                                                 
    0.000 999%   0.000 GSH                                                 
 1.46E+03  33%   1.748 Ins                                                 
    0.000 999%   0.000 Lac                                                 
    0.000 999%   0.000 NAA                                                 
    0.000 999%   0.000 NAAG                                                
   12.526  20% 1.5E-02 Scyllo                                              
   62.620  20% 7.5E-02 Tau                                                 
   83.513  16%   0.100 -CrCH2                                              
  139.136  37%   0.167 GPC+PCh                                             
    0.000 999%   0.000 NAA+NAAG                                            
  835.070  16%   1.000 Cr+PCr                                              
 1.24E+04  12%  14.863 Glu+Gln                                             
 5.11E+04  12%  61.155 Lip13a                                              
    0.000 999%   0.000 Lip13b                                              
 1.57E+04  13%  18.836 Lip09                                               
 9.10E+03  14%  10.897 MM09                                                
 4.38E+03  17%   5.245 Lip20                                               
 1.57E+03  49%   1.877-MM20                                                
 3.81E+03  19%   4.563 MM12                                                
 2.28E+04  12%  27.309+MM14                                                
 1.19E+04  16%  14.232+MM17                                                
 5.11E+04  12%  61.155 Lip13a+Lip13b                                       
 7.77E+04   7%  93.028 MM14+Lip13a+Lip13b+MM12                             
 2.48E+04   8%  29.733 MM09+Lip09                                          
 5.95E+03  10%   7.122 MM20+Lip20                                          
   6 lines in following misc. output table
  FWHM = 0.183 ppm    S/N =  37                                            
  Data shift = 0.168 ppm                                                   
  Ph: 128 deg       8.0 deg/ppm                                            
  alphaB,S = 1.6E+00,   2.1E+02                                            
    8 spline knots.   Ns = 9(2)                                            
  (13) 5 infls.   ( 7) 1 extrs.                                            
  498 points on ppm-axis = NY
      4.000000     3.992357     3.984714     3.977070     3.969427     3.961784     3.954141     3.946497     3.938854     3.931211
      3.923568     3.915925     3.908281     3.900638     3.892995     3.885352     3.877708     3.870065     3.862422     3.854779
      3.847136     3.839492     3.831849     3.824206     3.816563     3.808919     3.801276     3.793633     3.785990     3.778347
      3.770703     3.763060     3.755417     3.747774     3.740130     3.732487     3.724844     3.717201     3.709558     3.701914
      3.694271     3.686628     3.678985     3.671341     3.663698     3.656055     3.648412     3.640769     3.633125     3.625482
      3.617839     3.610196     3.602552     3.594909     3.587266     3.579623     3.571980     3.564336     3.556693     3.549050
      3.541407     3.533763     3.526120     3.518477     3.510834     3.503191     3.495547     3.487904     3.480261     3.472618
      3.464974     3.457331     3.449688     3.442045     3.434402     3.426758     3.419115     3.411472     3.403829     3.396185
      3.388542     3.380899     3.373256     3.365613     3.357969     3.350326     3.342683     3.335040     3.327396     3.319753
      3.312110     3.304467     3.296824     3.289180     3.281537     3.273894     3.266251     3.258607     3.250964     3.243321
      3.235678     3.228034     3.220391     3.212748     3.205105     3.197462     3.189818     3.182175     3.174532     3.166889
      3.159245     3.151602     3.143959     3.136316     3.128673     3.121029     3.113386     3.105743     3.098100     3.090456
      3.082813     3.075170     3.067527     3.059884     3.052240     3.044597     3.036954     3.029311     3.021667     3.014024
      3.006381     2.998738     2.991095     2.983451     2.975808     2.968165     2.960522     2.952878     2.945235     2.937592
      2.929949     2.922306     2.914662     2.907019     2.899376     2.891733     2.884089     2.876446     2.868803     2.861160
      2.853517     2.845873     2.838230     2.830587     2.822944     2.815300     2.807657     2.800014     2.792371     2.784728
      2.777084     2.769441     2.761798     2.754155     2.746511     2.738868     2.731225     2.723582     2.715939     2.708295
      2.700652     2.693009     2.685366     2.677722     2.670079     2.662436     2.654793     2.647150     2.639506     2.631863
      2.624220     2.616577     2.608933     2.601290     2.593647     2.586004     2.578361     2.570717     2.563074     2.555431
      2.547788     2.540144     2.532501     2.524858     2.517215     2.509572     2.501928     2.494285     2.486642     2.478999
      2.471355     2.463712     2.456069     2.448426     2.440783     2.433139     2.425496     2.417853     2.410210     2.402566
      2.394923     2.387280     2.379637     2.371994     2.364350     2.356707     2.349064     2.341421     2.333777     2.326134
      2.318491     2.310848     2.303205     2.295561     2.287918     2.280275     2.272632     2.264988     2.257345     2.249702
      2.242059     2.234416     2.226772     2.219129     2.211486     2.203843     2.196199     2.188556     2.180913     2.173270
      2.165627     2.157983     2.150340     2.142697     2.135054     2.127410     2.119767     2.112124     2.104481     2.096838
      2.089194     2.081551     2.073908     2.066265     2.058621     2.050978     2.043335     2.035692     2.028049     2.020405
      2.012762     2.005119     1.997476     1.989833     1.982190     1.974546     1.966903     1.959260     1.951617     1.943974
      1.936331     1.928688     1.921045     1.913402     1.905759     1.898115     1.890472     1.882829     1.875186     1.867543
      1.859900     1.852257     1.844614     1.836971     1.829327     1.821684     1.814041     1.806398     1.798755     1.791112
      1.783469     1.775826     1.768183     1.760540     1.752896     1.745253     1.737610     1.729967     1.722324     1.714681
      1.707038     1.699395     1.691752     1.684108     1.676465     1.668822     1.661179     1.653536     1.645893     1.638250
      1.630607     1.622964     1.615321     1.607677     1.600034     1.592391     1.584748     1.577105     1.569462     1.561819
      1.554176     1.546533     1.538890     1.531246     1.523603     1.515960     1.508317     1.500674     1.493031     1.485388
      1.477745     1.470102     1.462458     1.454815     1.447172     1.439529     1.431886     1.424243     1.416600     1.408957
      1.401314     1.393671     1.386027     1.378384     1.370741     1.363098     1.355455     1.347812     1.340169     1.332526
      1.324883     1.317240     1.309596     1.301953     1.294310     1.286667     1.279024     1.271381     1.263738     1.256095
      1.248452     1.240808     1.233165     1.225522     1.217879     1.210236     1.202593     1.194950     1.187307     1.179664
      1.172021     1.164377     1.156734     1.149091     1.141448     1.133805     1.126162     1.118519     1.110876     1.103233
      1.095590     1.087946     1.080303     1.072660     1.065017     1.057374     1.049731     1.042088     1.034445     1.026802
      1.019158     1.011515     1.003872     0.996229     0.988586     0.980943     0.973300     0.965657     0.958014     0.950371
      0.942727     0.935084     0.927441     0.919798     0.912155     0.904512     0.896869     0.889226     0.881583     0.873940
      0.866296     0.858653     0.851010     0.843367     0.835724     0.828081     0.820438     0.812795     0.805152     0.797508
      0.789865     0.782222     0.774579     0.766936     0.759293     0.751650     0.744007     0.736364     0.728721     0.721077
      0.713434     0.705791     0.698148     0.690505     0.682862     0.675219     0.667576     0.659933     0.652290     0.644646
      0.637003     0.629360     0.621717     0.614074     0.606431     0.598788     0.591145     0.583502     0.575858     0.568215
      0.560572     0.552929     0.545286     0.537643     0.530000     0.522357     0.514714     0.507071     0.499427     0.491784
      0.484141     0.476498     0.468855     0.461212     0.453569     0.445925     0.438282     0.430639     0.422996     0.415353
      0.407710     0.400067     0.392424     0.384780     0.377137     0.369494     0.361851     0.354208     0.346565     0.338922
      0.331278     0.323635     0.315992     0.308349     0.300706     0.293063     0.285420     0.277777     0.270133     0.262490
      0.254847     0.247204     0.239561     0.231918     0.224275     0.216631     0.208988     0.201345
 NY phased data points follow
  -2.86868E+01 -2.59528E+01 -2.41123E+01 -2.44622E+01 -2.24565E+01 -2.07526E+01 -2.74823E+01 -2.55273E+01 -2.62387E+01 -2.46942E+01
  -2.64699E+01 -2.12224E+01 -2.52014E+01 -2.60403E+01 -2.86019E+01 -2.78660E+01 -2.64422E+01 -2.77098E+01 -2.40146E+01 -2.75684E+01
  -2.59347E+01 -2.75808E+01 -2.86375E+01 -2.78152E+01 -2.66451E+01 -2.67783E+01 -2.56514E+01 -2.88056E+01 -2.58619E+01 -2.91300E+01
  -2.68417E+01 -2.92293E+01 -2.57159E+01 -2.66944E+01 -2.55983E+01 -2.61744E+01 -2.42351E+01 -1.95123E+01 -2.73498E+01 -2.59417E+01
  -2.38994E+01 -2.33953E+01 -2.69993E+01 -2.55376E+01 -2.84492E+01 -2.19761E+01 -2.25020E+01 -2.96734E+01 -2.95498E+01 -3.00778E+01
  -2.48574E+01 -2.54938E+01 -2.62720E+01 -2.85174E+01 -3.05872E+01 -2.63838E+01 -2.83376E+01 -2.71398E+01 -2.88589E+01 -2.49878E+01
  -2.71077E+01 -3.22036E+01 -3.27357E+01 -3.17938E+01 -2.92939E+01 -3.10738E+01 -3.02190E+01 -3.51811E+01 -3.22857E+01 -3.09269E+01
  -3.45258E+01 -3.59904E+01 -3.36208E+01 -3.70166E+01 -3.79676E+01 -3.51868E+01 -3.54658E+01 -3.69507E+01 -3.83259E+01 -3.66181E+01
  -3.82722E+01 -3.91278E+01 -3.33809E+01 -3.44373E+01 -3.24879E+01 -3.31987E+01 -3.23792E+01 -3.19962E+01 -3.05871E+01 -3.35053E+01
  -3.02722E+01 -2.80140E+01 -3.27808E+01 -2.99096E+01 -2.97351E+01 -3.52497E+01 -3.46260E+01 -3.38427E+01 -3.54499E+01 -3.88956E+01
  -3.55420E+01 -3.98598E+01 -4.00832E+01 -4.06985E+01 -4.11910E+01 -3.86046E+01 -3.96122E+01 -3.21917E+01 -3.27476E+01 -3.20004E+01
  -2.99835E+01 -3.42618E+01 -3.24553E+01 -3.18952E+01 -3.51558E+01 -3.00513E+01 -2.76078E+01 -2.80313E+01 -2.87789E+01 -2.88310E+01
  -3.37226E+01 -3.02422E+01 -2.71367E+01 -3.37037E+01 -3.15071E+01 -2.92924E+01 -3.10365E+01 -2.85433E+01 -3.05723E+01 -3.27403E+01
  -3.28496E+01 -3.28801E+01 -3.23410E+01 -3.00386E+01 -3.42713E+01 -3.03585E+01 -3.27834E+01 -3.48555E+01 -3.47128E+01 -3.43055E+01
  -3.36958E+01 -3.56832E+01 -3.37060E+01 -3.55452E+01 -3.57750E+01 -3.36723E+01 -3.73909E+01 -3.63889E+01 -3.54637E+01 -3.46787E+01
  -3.53301E+01 -3.46167E+01 -3.66260E+01 -3.81981E+01 -3.89089E+01 -4.26494E+01 -3.78879E+01 -4.04908E+01 -4.21000E+01 -4.15320E+01
  -4.52889E+01 -4.33689E+01 -4.36478E+01 -4.41410E+01 -4.64670E+01 -4.65784E+01 -4.51214E+01 -4.90379E+01 -5.03505E+01 -4.96960E+01
  -4.99940E+01 -5.00209E+01 -4.87917E+01 -4.92241E+01 -5.31550E+01 -5.30386E+01 -5.58943E+01 -5.21520E+01 -5.34008E+01 -5.60032E+01
  -5.84046E+01 -5.84491E+01 -5.59726E+01 -5.81857E+01 -5.26894E+01 -5.66873E+01 -5.38076E+01 -6.37330E+01 -5.60982E+01 -6.09051E+01
  -5.90984E+01 -6.08847E+01 -6.18934E+01 -5.90258E+01 -6.18444E+01 -6.00129E+01 -5.85354E+01 -5.85285E+01 -6.11317E+01 -6.15633E+01
  -6.09085E+01 -5.82354E+01 -6.15095E+01 -6.31770E+01 -6.32313E+01 -6.20561E+01 -6.09584E+01 -6.14841E+01 -6.26049E+01 -6.18108E+01
  -6.33854E+01 -6.11170E+01 -6.41567E+01 -6.30052E+01 -6.58044E+01 -6.29158E+01 -6.20020E+01 -6.12006E+01 -6.43642E+01 -6.01405E+01
  -6.62688E+01 -6.57290E+01 -6.52248E+01 -6.52181E+01 -6.39746E+01 -6.82844E+01 -6.67816E+01 -6.91589E+01 -7.12655E+01 -6.79627E+01
  -6.87644E+01 -7.17671E+01 -7.10599E+01 -7.55131E+01 -7.52611E+01 -7.65593E+01 -7.63784E+01 -7.31780E+01 -6.51018E+01 -6.33999E+01
  -5.90486E+01 -6.17589E+01 -5.62187E+01 -5.66463E+01 -5.53340E+01 -5.17425E+01 -5.18733E+01 -5.10180E+01 -5.23140E+01 -4.78080E+01
  -5.03881E+01 -5.03268E+01 -4.95360E+01 -5.09268E+01 -5.04376E+01 -5.09833E+01 -5.41880E+01 -5.44347E+01 -5.51562E+01 -5.57481E+01
  -6.16794E+01 -6.01418E+01 -6.29711E+01 -6.08025E+01 -6.27721E+01 -6.04749E+01 -6.50670E+01 -6.33817E+01 -6.21459E+01 -6.47428E+01
  -6.60777E+01 -6.51323E+01 -7.02778E+01 -7.02078E+01 -7.01718E+01 -6.74340E+01 -7.01276E+01 -7.05304E+01 -6.92806E+01 -7.19390E+01
  -6.81924E+01 -7.01964E+01 -7.18307E+01 -7.28160E+01 -6.91317E+01 -6.72064E+01 -6.88478E+01 -6.43732E+01 -6.33387E+01 -6.22580E+01
  -6.08727E+01 -5.83043E+01 -5.86983E+01 -5.47733E+01 -4.64512E+01 -4.69836E+01 -4.04087E+01 -3.57748E+01 -3.18204E+01 -2.68349E+01
  -1.79495E+01 -1.42201E+01 -5.92474E+00  5.61419E+00  1.19223E+01  2.19498E+01  3.34297E+01  4.08864E+01  4.87796E+01  6.37695E+01
   7.09232E+01  8.46153E+01  9.60408E+01  9.93133E+01  1.14074E+02  1.20303E+02  1.31197E+02  1.36497E+02  1.48390E+02  1.50079E+02
   1.59943E+02  1.64753E+02  1.68456E+02  1.71616E+02  1.79972E+02  1.78565E+02  1.81408E+02  1.81937E+02  1.81406E+02  1.82884E+02
   1.81944E+02  1.77705E+02  1.77588E+02  1.78134E+02  1.71241E+02  1.70395E+02  1.68821E+02  1.65090E+02  1.62448E+02  1.54810E+02
   1.51777E+02  1.47139E+02  1.49921E+02  1.47631E+02  1.44139E+02  1.38568E+02  1.40499E+02  1.37419E+02  1.32023E+02  1.33439E+02
   1.28980E+02  1.27625E+02  1.23984E+02  1.26112E+02  1.24329E+02  1.22425E+02  1.22735E+02  1.17496E+02  1.21480E+02  1.17619E+02
   1.15946E+02  1.17646E+02  1.17797E+02  1.17927E+02  1.13099E+02  1.12878E+02  1.12939E+02  1.13143E+02  1.13658E+02  1.08298E+02
   1.07278E+02  1.02425E+02  1.09833E+02  1.01998E+02  1.04885E+02  1.05072E+02  1.01615E+02  1.04914E+02  1.02440E+02  1.03199E+02
   1.03065E+02  1.03540E+02  9.97087E+01  1.00818E+02  1.01589E+02  9.97784E+01  9.83374E+01  9.81937E+01  9.84554E+01  9.74968E+01
   9.98567E+01  9.64538E+01  9.53811E+01  9.27002E+01  9.18039E+01  9.26754E+01  9.46592E+01  9.24351E+01  9.12741E+01  9.25031E+01
   9.10426E+01  9.09914E+01  8.75728E+01  8.64161E+01  8.62739E+01  8.45821E+01  8.06584E+01  8.18930E+01  7.92531E+01  8.14000E+01
   8.00561E+01  7.85522E+01  7.89423E+01  7.76920E+01  7.31548E+01  7.50020E+01  7.50474E+01  7.17182E+01  7.44151E+01  7.12888E+01
   7.32408E+01  6.82944E+01  6.97952E+01  6.80190E+01  6.54083E+01  6.53234E+01  6.59325E+01  6.32870E+01  6.34986E+01  6.29229E+01
   6.33351E+01  6.36302E+01  6.13728E+01  6.11301E+01  5.74905E+01  5.88064E+01  5.95103E+01  5.67015E+01  5.61772E+01  5.61833E+01
   5.59054E+01  6.01328E+01  5.56934E+01  5.65677E+01  5.42363E+01  5.46362E+01  5.38668E+01  5.14904E+01  5.17556E+01  4.86955E+01
   4.81780E+01  5.03761E+01  5.09054E+01  4.66133E+01  5.12646E+01  4.81826E+01  4.79406E+01  4.72628E+01  4.98504E+01  4.54120E+01
   4.54906E+01  4.40930E+01  4.32612E+01  4.39626E+01  4.03785E+01  4.21119E+01  4.14730E+01  4.09850E+01  4.40288E+01  4.23781E+01
   3.58058E+01  3.89260E+01  3.97191E+01  4.03454E+01  3.93119E+01  3.98625E+01  3.91593E+01  3.83665E+01  3.78614E+01  3.56680E+01
   3.86481E+01  3.74418E+01  3.58427E+01  3.61020E+01  3.30790E+01  3.53769E+01  3.18902E+01  3.46707E+01  3.54167E+01  3.34203E+01
   3.41130E+01  3.55983E+01  3.16842E+01  3.41735E+01  2.94327E+01  3.14424E+01  3.03207E+01  3.16653E+01
 NY points of the fit to the data follow
  -2.64433E+01 -2.60963E+01 -2.62208E+01 -2.59097E+01 -2.61158E+01 -2.58114E+01 -2.59980E+01 -2.56167E+01 -2.56622E+01 -2.52663E+01
  -2.58386E+01 -2.55161E+01 -2.64523E+01 -2.60070E+01 -2.67390E+01 -2.55624E+01 -2.60617E+01 -2.45760E+01 -2.56218E+01 -2.42784E+01
  -2.60945E+01 -2.48850E+01 -2.66195E+01 -2.51310E+01 -2.68000E+01 -2.52567E+01 -2.72518E+01 -2.58693E+01 -2.80631E+01 -2.64937E+01
  -2.80425E+01 -2.60386E+01 -2.74403E+01 -2.52551E+01 -2.67219E+01 -2.46119E+01 -2.63660E+01 -2.45414E+01 -2.65208E+01 -2.50271E+01
  -2.68380E+01 -2.55048E+01 -2.67956E+01 -2.56057E+01 -2.63806E+01 -2.55849E+01 -2.60501E+01 -2.57775E+01 -2.59589E+01 -2.63116E+01
  -2.69821E+01 -2.78363E+01 -2.83571E+01 -2.91401E+01 -2.89193E+01 -2.90103E+01 -2.83021E+01 -2.83230E+01 -2.81873E+01 -2.86093E+01
  -2.91194E+01 -2.99403E+01 -3.02499E+01 -3.09669E+01 -3.11808E+01 -3.18421E+01 -3.19676E+01 -3.24954E+01 -3.24411E+01 -3.27318E+01
  -3.24269E+01 -3.27278E+01 -3.24805E+01 -3.29009E+01 -3.27192E+01 -3.32150E+01 -3.30893E+01 -3.36230E+01 -3.35254E+01 -3.40357E+01
  -3.39722E+01 -3.43906E+01 -3.42891E+01 -3.46542E+01 -3.45576E+01 -3.48902E+01 -3.46350E+01 -3.49941E+01 -3.47769E+01 -3.51807E+01
  -3.50176E+01 -3.54096E+01 -3.51849E+01 -3.55285E+01 -3.51343E+01 -3.54715E+01 -3.50596E+01 -3.54249E+01 -3.50527E+01 -3.54167E+01
  -3.50382E+01 -3.53476E+01 -3.49066E+01 -3.51404E+01 -3.46227E+01 -3.48149E+01 -3.42890E+01 -3.43835E+01 -3.34901E+01 -3.35784E+01
  -3.27924E+01 -3.29928E+01 -3.23639E+01 -3.26210E+01 -3.20028E+01 -3.22649E+01 -3.16566E+01 -3.19521E+01 -3.15959E+01 -3.19600E+01
  -3.19598E+01 -3.23248E+01 -3.24594E+01 -3.26844E+01 -3.26851E+01 -3.26345E+01 -3.21590E+01 -3.19908E+01 -3.15500E+01 -3.14269E+01
  -3.11591E+01 -3.11162E+01 -3.10174E+01 -3.10305E+01 -3.10249E+01 -3.10862E+01 -3.12284E+01 -3.13964E+01 -3.18664E+01 -3.21878E+01
  -3.30014E+01 -3.34590E+01 -3.45293E+01 -3.50431E+01 -3.61415E+01 -3.65898E+01 -3.74266E+01 -3.76033E+01 -3.76106E+01 -3.76161E+01
  -3.76651E+01 -3.77564E+01 -3.79190E+01 -3.81365E+01 -3.84407E+01 -3.88032E+01 -3.92566E+01 -3.97624E+01 -4.03552E+01 -4.09928E+01
  -4.17078E+01 -4.24505E+01 -4.32600E+01 -4.40771E+01 -4.49466E+01 -4.58003E+01 -4.66878E+01 -4.75420E+01 -4.84176E+01 -4.92500E+01
  -5.00894E+01 -5.08765E+01 -5.16592E+01 -5.23876E+01 -5.31044E+01 -5.37684E+01 -5.44132E+01 -5.50126E+01 -5.55868E+01 -5.61231E+01
  -5.66256E+01 -5.70984E+01 -5.75415E+01 -5.79562E+01 -5.83371E+01 -5.86841E+01 -5.89809E+01 -5.92183E+01 -5.93881E+01 -5.96663E+01
  -5.98677E+01 -6.01421E+01 -6.07163E+01 -6.09464E+01 -6.17237E+01 -6.17384E+01 -6.22674E+01 -6.16883E+01 -6.12597E+01 -6.04912E+01
  -6.03029E+01 -5.97710E+01 -6.01302E+01 -6.00325E+01 -6.10972E+01 -6.14910E+01 -6.22170E+01 -6.23003E+01 -6.30675E+01 -6.28871E+01
  -6.41063E+01 -6.38471E+01 -6.52200E+01 -6.47558E+01 -6.56105E+01 -6.45316E+01 -6.48053E+01 -6.34194E+01 -6.38212E+01 -6.27314E+01
  -6.37758E+01 -6.31844E+01 -6.47572E+01 -6.44913E+01 -6.58268E+01 -6.56967E+01 -6.64170E+01 -6.62625E+01 -6.69499E+01 -6.73772E+01
  -6.86722E+01 -6.95674E+01 -7.16486E+01 -7.24050E+01 -7.37218E+01 -7.29396E+01 -7.20864E+01 -6.94138E+01 -6.58757E+01 -6.30053E+01
  -5.97770E+01 -5.81044E+01 -5.56751E+01 -5.56075E+01 -5.44143E+01 -5.56187E+01 -5.38999E+01 -5.47679E+01 -5.29505E+01 -5.36036E+01
  -5.18743E+01 -5.26196E+01 -5.12014E+01 -5.22810E+01 -5.14933E+01 -5.26281E+01 -5.25073E+01 -5.34903E+01 -5.41689E+01 -5.49074E+01
  -5.64717E+01 -5.69364E+01 -5.92876E+01 -5.95864E+01 -6.21787E+01 -6.23330E+01 -6.46481E+01 -6.42281E+01 -6.61723E+01 -6.55324E+01
  -6.70460E+01 -6.63398E+01 -6.77903E+01 -6.73255E+01 -6.85581E+01 -6.79303E+01 -6.88063E+01 -6.81172E+01 -6.88008E+01 -6.81955E+01
  -6.89277E+01 -6.83925E+01 -6.86161E+01 -6.78570E+01 -6.74694E+01 -6.65347E+01 -6.55066E+01 -6.44614E+01 -6.31192E+01 -6.17450E+01
  -6.00171E+01 -5.82474E+01 -5.60127E+01 -5.36342E+01 -5.06933E+01 -4.73519E+01 -4.33002E+01 -3.87299E+01 -3.34293E+01 -2.75054E+01
  -2.08584E+01 -1.35422E+01 -5.57984E+00  3.00635E+00  1.21604E+01  2.18058E+01  3.18452E+01  4.21721E+01  5.26657E+01  6.32075E+01
   7.36731E+01  8.39571E+01  9.39648E+01  1.03609E+02  1.12832E+02  1.21580E+02  1.29829E+02  1.37551E+02  1.44739E+02  1.51377E+02
   1.57459E+02  1.62967E+02  1.67882E+02  1.72176E+02  1.75819E+02  1.78780E+02  1.81028E+02  1.82541E+02  1.83307E+02  1.83333E+02
   1.82640E+02  1.81273E+02  1.79294E+02  1.76784E+02  1.73836E+02  1.70556E+02  1.67051E+02  1.63428E+02  1.59785E+02  1.56214E+02
   1.52786E+02  1.49557E+02  1.46565E+02  1.43829E+02  1.41351E+02  1.39121E+02  1.37113E+02  1.35298E+02  1.33641E+02  1.32107E+02
   1.30661E+02  1.29277E+02  1.27931E+02  1.26611E+02  1.25305E+02  1.24015E+02  1.22743E+02  1.21498E+02  1.20286E+02  1.19118E+02
   1.17998E+02  1.16933E+02  1.15918E+02  1.14952E+02  1.14023E+02  1.13122E+02  1.12233E+02  1.11345E+02  1.10445E+02  1.09526E+02
   1.08585E+02  1.07624E+02  1.06650E+02  1.05679E+02  1.04725E+02  1.03811E+02  1.02956E+02  1.02181E+02  1.01502E+02  1.00930E+02
   1.00469E+02  1.00119E+02  9.98672E+01  9.96994E+01  9.95908E+01  9.95164E+01  9.94445E+01  9.93471E+01  9.91929E+01  9.89586E+01
   9.86208E+01  9.81663E+01  9.75842E+01  9.68741E+01  9.60378E+01  9.50871E+01  9.40342E+01  9.28993E+01  9.17001E+01  9.04606E+01
   8.91997E+01  8.79401E+01  8.66974E+01  8.54895E+01  8.43262E+01  8.32187E+01  8.21702E+01  8.11853E+01  8.02611E+01  7.93969E+01
   7.85853E+01  7.78220E+01  7.70971E+01  7.64045E+01  7.57337E+01  7.50786E+01  7.44292E+01  7.37809E+01  7.31250E+01  7.24588E+01
   7.17758E+01  7.10753E+01  7.03529E+01  6.96100E+01  6.88439E+01  6.80579E+01  6.72507E+01  6.64267E+01  6.55860E+01  6.47337E+01
   6.38703E+01  6.30015E+01  6.21280E+01  6.12555E+01  6.03846E+01  5.95208E+01  5.86642E+01  5.78200E+01  5.69879E+01  5.61725E+01
   5.53731E+01  5.45936E+01  5.38326E+01  5.30938E+01  5.23753E+01  5.16801E+01  5.10059E+01  5.03554E+01  4.97259E+01  4.91198E+01
   4.85340E+01  4.79709E+01  4.74270E+01  4.69045E+01  4.63999E+01  4.59152E+01  4.54468E+01  4.49967E+01  4.45613E+01  4.41424E+01
   4.37365E+01  4.33454E+01  4.29656E+01  4.25989E+01  4.22419E+01  4.18965E+01  4.15591E+01  4.12318E+01  4.09111E+01  4.05990E+01
   4.02922E+01  3.99928E+01  3.96973E+01  3.94080E+01  3.91215E+01  3.88400E+01  3.85603E+01  3.82847E+01  3.80099E+01  3.77382E+01
   3.74665E+01  3.71971E+01  3.69268E+01  3.66582E+01  3.63879E+01  3.61186E+01  3.58471E+01  3.55759E+01  3.53020E+01  3.50278E+01
   3.47503E+01  3.44722E+01  3.41903E+01  3.39072E+01  3.36201E+01  3.33315E+01  3.30385E+01  3.27438E+01
 NY background values follow
    -3.504E+01   -3.517E+01   -3.529E+01   -3.541E+01   -3.553E+01   -3.564E+01   -3.575E+01   -3.585E+01   -3.595E+01   -3.604E+01
    -3.613E+01   -3.621E+01   -3.629E+01   -3.637E+01   -3.644E+01   -3.651E+01   -3.657E+01   -3.663E+01   -3.669E+01   -3.674E+01
    -3.680E+01   -3.684E+01   -3.689E+01   -3.693E+01   -3.697E+01   -3.700E+01   -3.703E+01   -3.706E+01   -3.709E+01   -3.712E+01
    -3.714E+01   -3.716E+01   -3.718E+01   -3.719E+01   -3.721E+01   -3.722E+01   -3.723E+01   -3.724E+01   -3.725E+01   -3.725E+01
    -3.726E+01   -3.726E+01   -3.726E+01   -3.726E+01   -3.726E+01   -3.726E+01   -3.726E+01   -3.726E+01   -3.725E+01   -3.725E+01
    -3.725E+01   -3.724E+01   -3.724E+01   -3.723E+01   -3.723E+01   -3.722E+01   -3.722E+01   -3.722E+01   -3.721E+01   -3.721E+01
    -3.721E+01   -3.720E+01   -3.720E+01   -3.720E+01   -3.720E+01   -3.721E+01   -3.721E+01   -3.721E+01   -3.722E+01   -3.723E+01
    -3.723E+01   -3.724E+01   -3.726E+01   -3.727E+01   -3.729E+01   -3.730E+01   -3.732E+01   -3.735E+01   -3.737E+01   -3.740E+01
    -3.743E+01   -3.746E+01   -3.749E+01   -3.753E+01   -3.757E+01   -3.762E+01   -3.766E+01   -3.771E+01   -3.777E+01   -3.782E+01
    -3.788E+01   -3.795E+01   -3.802E+01   -3.809E+01   -3.816E+01   -3.824E+01   -3.833E+01   -3.841E+01   -3.851E+01   -3.860E+01
    -3.870E+01   -3.881E+01   -3.892E+01   -3.903E+01   -3.915E+01   -3.928E+01   -3.940E+01   -3.954E+01   -3.967E+01   -3.981E+01
    -3.996E+01   -4.011E+01   -4.026E+01   -4.042E+01   -4.058E+01   -4.075E+01   -4.092E+01   -4.110E+01   -4.127E+01   -4.146E+01
    -4.164E+01   -4.184E+01   -4.203E+01   -4.223E+01   -4.243E+01   -4.264E+01   -4.285E+01   -4.307E+01   -4.329E+01   -4.351E+01
    -4.374E+01   -4.397E+01   -4.421E+01   -4.444E+01   -4.469E+01   -4.493E+01   -4.518E+01   -4.544E+01   -4.569E+01   -4.596E+01
    -4.622E+01   -4.649E+01   -4.676E+01   -4.704E+01   -4.732E+01   -4.760E+01   -4.789E+01   -4.818E+01   -4.847E+01   -4.877E+01
    -4.907E+01   -4.937E+01   -4.968E+01   -4.999E+01   -5.030E+01   -5.062E+01   -5.094E+01   -5.127E+01   -5.159E+01   -5.192E+01
    -5.226E+01   -5.259E+01   -5.293E+01   -5.328E+01   -5.362E+01   -5.397E+01   -5.433E+01   -5.468E+01   -5.504E+01   -5.540E+01
    -5.577E+01   -5.614E+01   -5.651E+01   -5.688E+01   -5.726E+01   -5.764E+01   -5.802E+01   -5.840E+01   -5.879E+01   -5.918E+01
    -5.958E+01   -5.997E+01   -6.037E+01   -6.078E+01   -6.118E+01   -6.159E+01   -6.200E+01   -6.241E+01   -6.283E+01   -6.324E+01
    -6.367E+01   -6.409E+01   -6.451E+01   -6.494E+01   -6.537E+01   -6.581E+01   -6.624E+01   -6.668E+01   -6.712E+01   -6.756E+01
    -6.801E+01   -6.846E+01   -6.890E+01   -6.936E+01   -6.981E+01   -7.026E+01   -7.072E+01   -7.117E+01   -7.163E+01   -7.208E+01
    -7.254E+01   -7.300E+01   -7.345E+01   -7.391E+01   -7.436E+01   -7.482E+01   -7.527E+01   -7.572E+01   -7.617E+01   -7.662E+01
    -7.707E+01   -7.752E+01   -7.796E+01   -7.840E+01   -7.884E+01   -7.927E+01   -7.970E+01   -8.013E+01   -8.055E+01   -8.097E+01
    -8.139E+01   -8.180E+01   -8.221E+01   -8.261E+01   -8.301E+01   -8.340E+01   -8.379E+01   -8.417E+01   -8.455E+01   -8.492E+01
    -8.528E+01   -8.564E+01   -8.599E+01   -8.633E+01   -8.667E+01   -8.700E+01   -8.733E+01   -8.764E+01   -8.795E+01   -8.825E+01
    -8.854E+01   -8.882E+01   -8.909E+01   -8.936E+01   -8.961E+01   -8.986E+01   -9.010E+01   -9.033E+01   -9.054E+01   -9.075E+01
    -9.095E+01   -9.113E+01   -9.131E+01   -9.147E+01   -9.162E+01   -9.177E+01   -9.190E+01   -9.201E+01   -9.212E+01   -9.221E+01
    -9.229E+01   -9.236E+01   -9.242E+01   -9.246E+01   -9.249E+01   -9.250E+01   -9.251E+01   -9.249E+01   -9.247E+01   -9.243E+01
    -9.237E+01   -9.230E+01   -9.221E+01   -9.211E+01   -9.200E+01   -9.186E+01   -9.172E+01   -9.155E+01   -9.137E+01   -9.118E+01
    -9.096E+01   -9.073E+01   -9.048E+01   -9.022E+01   -8.994E+01   -8.963E+01   -8.932E+01   -8.898E+01   -8.862E+01   -8.825E+01
    -8.786E+01   -8.745E+01   -8.702E+01   -8.657E+01   -8.611E+01   -8.563E+01   -8.513E+01   -8.462E+01   -8.409E+01   -8.354E+01
    -8.298E+01   -8.241E+01   -8.182E+01   -8.121E+01   -8.059E+01   -7.996E+01   -7.931E+01   -7.865E+01   -7.797E+01   -7.728E+01
    -7.658E+01   -7.587E+01   -7.515E+01   -7.441E+01   -7.366E+01   -7.290E+01   -7.213E+01   -7.135E+01   -7.056E+01   -6.976E+01
    -6.895E+01   -6.813E+01   -6.730E+01   -6.646E+01   -6.561E+01   -6.476E+01   -6.389E+01   -6.302E+01   -6.214E+01   -6.126E+01
    -6.037E+01   -5.947E+01   -5.856E+01   -5.765E+01   -5.673E+01   -5.581E+01   -5.488E+01   -5.395E+01   -5.301E+01   -5.207E+01
    -5.113E+01   -5.018E+01   -4.923E+01   -4.827E+01   -4.732E+01   -4.636E+01   -4.539E+01   -4.443E+01   -4.346E+01   -4.250E+01
    -4.153E+01   -4.056E+01   -3.959E+01   -3.862E+01   -3.765E+01   -3.668E+01   -3.572E+01   -3.475E+01   -3.378E+01   -3.282E+01
    -3.186E+01   -3.090E+01   -2.994E+01   -2.899E+01   -2.803E+01   -2.709E+01   -2.614E+01   -2.520E+01   -2.426E+01   -2.333E+01
    -2.240E+01   -2.148E+01   -2.056E+01   -1.965E+01   -1.875E+01   -1.785E+01   -1.696E+01   -1.607E+01   -1.519E+01   -1.432E+01
    -1.346E+01   -1.260E+01   -1.175E+01   -1.092E+01   -1.009E+01   -9.266E+00   -8.455E+00   -7.654E+00   -6.862E+00   -6.081E+00
    -5.310E+00   -4.549E+00   -3.799E+00   -3.058E+00   -2.328E+00   -1.607E+00   -8.969E-01   -1.966E-01    4.936E-01    1.174E+00
     1.844E+00    2.504E+00    3.155E+00    3.795E+00    4.425E+00    5.046E+00    5.657E+00    6.257E+00    6.848E+00    7.429E+00
     8.001E+00    8.562E+00    9.114E+00    9.656E+00    1.019E+01    1.071E+01    1.122E+01    1.173E+01    1.222E+01    1.270E+01
     1.318E+01    1.364E+01    1.410E+01    1.454E+01    1.498E+01    1.541E+01    1.582E+01    1.623E+01    1.663E+01    1.702E+01
     1.739E+01    1.776E+01    1.812E+01    1.847E+01    1.882E+01    1.915E+01    1.947E+01    1.978E+01    2.009E+01    2.038E+01
     2.067E+01    2.094E+01    2.121E+01    2.147E+01    2.172E+01    2.196E+01    2.219E+01    2.241E+01    2.262E+01    2.282E+01
     2.302E+01    2.320E+01    2.338E+01    2.354E+01    2.370E+01    2.385E+01    2.399E+01    2.412E+01    2.424E+01    2.436E+01
     2.446E+01    2.456E+01    2.464E+01    2.472E+01    2.479E+01    2.485E+01    2.490E+01    2.494E+01    2.497E+01    2.500E+01
     2.502E+01    2.502E+01    2.502E+01    2.501E+01    2.499E+01    2.497E+01    2.493E+01    2.489E+01    2.483E+01    2.477E+01
     2.470E+01    2.462E+01    2.454E+01    2.444E+01    2.434E+01    2.422E+01    2.410E+01    2.397E+01
 Asp      Conc. = 6.26E+01
