 LCModel (Version 6.3-1L) Copyright: S.W. Provencher.          Ref.: Magn. Reson. Med. 30:672-679 (1993).                
 Slice#3 Row#3 Col#13  K_02_press_1_raw_act
 36 lines in following concentration table = NCONC+1
    Conc.  %SD /Cr+PCr  Metabolite                                         
 3.54E+04  26% 161.279 Ala                                                 
    0.000 999%   0.000 Asp                                                 
  176.156 582%   0.803 Cr                                                  
   43.133 999%   0.197 PCr                                                 
   15.990 919% 7.3E-02 GABA                                                
   18.462 800% 8.4E-02 Glc                                                 
 1.24E+04  15%  56.639 Gln                                                 
    0.000 999%   0.000 Glu                                                 
    0.000 999%   0.000 GPC                                                 
  127.674  57%   0.582 PCh                                                 
  473.309  86%   2.158 GSH                                                 
    0.000 999%   0.000 Ins                                                 
 4.61E+04  28% 210.112 Lac                                                 
    0.000 999%   0.000 NAA                                                 
    0.000 999%   0.000 NAAG                                                
    9.213 504% 4.2E-02 Scyllo                                              
   54.767 446%   0.250 Tau                                                 
  245.779 227%   1.121 -CrCH2                                              
  127.674  57%   0.582 GPC+PCh                                             
    0.000 999%   0.000 NAA+NAAG                                            
  219.289 108%   1.000 Cr+PCr                                              
 1.24E+04  15%  56.639 Glu+Gln                                             
 2.69E+05   9% 1.2E+03 Lip13a                                              
 6.43E+03  60%  29.323 Lip13b                                              
 2.28E+03  91%  10.389-Lip09                                               
 1.07E+04  28%  48.786 MM09                                                
 3.57E+04  23% 163.005 Lip20                                               
    0.000 999%   0.000-MM20                                                
 3.55E+03  58%  16.167 MM12                                                
 6.76E+04  11% 308.280+MM14                                                
 1.98E+04  27%  90.273+MM17                                                
 2.76E+05   9% 1.3E+03 Lip13a+Lip13b                                       
 3.47E+05   6% 1.6E+03 MM14+Lip13a+Lip13b+MM12                             
 1.30E+04  31%  59.175 MM09+Lip09                                          
 3.57E+04  23% 163.005 MM20+Lip20                                          
   6 lines in following misc. output table
  FWHM = 0.153 ppm    S/N = 116                                            
  Data shift = 0.214 ppm                                                   
  Ph: 127 deg     143.0 deg/ppm                                            
  alphaB,S = 8.2E-01,   4.4E+02                                            
    9 spline knots.   Ns = 9(2)                                            
  (12) 2 infls.   ( 1) 1 extrs.                                            
  498 points on ppm-axis = NY
      4.000000     3.992357     3.984714     3.977070     3.969427     3.961784     3.954141     3.946497     3.938854     3.931211
      3.923568     3.915925     3.908281     3.900638     3.892995     3.885352     3.877708     3.870065     3.862422     3.854779
      3.847136     3.839492     3.831849     3.824206     3.816563     3.808919     3.801276     3.793633     3.785990     3.778347
      3.770703     3.763060     3.755417     3.747774     3.740130     3.732487     3.724844     3.717201     3.709558     3.701914
      3.694271     3.686628     3.678985     3.671341     3.663698     3.656055     3.648412     3.640769     3.633125     3.625482
      3.617839     3.610196     3.602552     3.594909     3.587266     3.579623     3.571980     3.564336     3.556693     3.549050
      3.541407     3.533763     3.526120     3.518477     3.510834     3.503191     3.495547     3.487904     3.480261     3.472618
      3.464974     3.457331     3.449688     3.442045     3.434402     3.426758     3.419115     3.411472     3.403829     3.396185
      3.388542     3.380899     3.373256     3.365613     3.357969     3.350326     3.342683     3.335040     3.327396     3.319753
      3.312110     3.304467     3.296824     3.289180     3.281537     3.273894     3.266251     3.258607     3.250964     3.243321
      3.235678     3.228034     3.220391     3.212748     3.205105     3.197462     3.189818     3.182175     3.174532     3.166889
      3.159245     3.151602     3.143959     3.136316     3.128673     3.121029     3.113386     3.105743     3.098100     3.090456
      3.082813     3.075170     3.067527     3.059884     3.052240     3.044597     3.036954     3.029311     3.021667     3.014024
      3.006381     2.998738     2.991095     2.983451     2.975808     2.968165     2.960522     2.952878     2.945235     2.937592
      2.929949     2.922306     2.914662     2.907019     2.899376     2.891733     2.884089     2.876446     2.868803     2.861160
      2.853517     2.845873     2.838230     2.830587     2.822944     2.815300     2.807657     2.800014     2.792371     2.784728
      2.777084     2.769441     2.761798     2.754155     2.746511     2.738868     2.731225     2.723582     2.715939     2.708295
      2.700652     2.693009     2.685366     2.677722     2.670079     2.662436     2.654793     2.647150     2.639506     2.631863
      2.624220     2.616577     2.608933     2.601290     2.593647     2.586004     2.578361     2.570717     2.563074     2.555431
      2.547788     2.540144     2.532501     2.524858     2.517215     2.509572     2.501928     2.494285     2.486642     2.478999
      2.471355     2.463712     2.456069     2.448426     2.440783     2.433139     2.425496     2.417853     2.410210     2.402566
      2.394923     2.387280     2.379637     2.371994     2.364350     2.356707     2.349064     2.341421     2.333777     2.326134
      2.318491     2.310848     2.303205     2.295561     2.287918     2.280275     2.272632     2.264988     2.257345     2.249702
      2.242059     2.234416     2.226772     2.219129     2.211486     2.203843     2.196199     2.188556     2.180913     2.173270
      2.165627     2.157983     2.150340     2.142697     2.135054     2.127410     2.119767     2.112124     2.104481     2.096838
      2.089194     2.081551     2.073908     2.066265     2.058621     2.050978     2.043335     2.035692     2.028049     2.020405
      2.012762     2.005119     1.997476     1.989833     1.982190     1.974546     1.966903     1.959260     1.951617     1.943974
      1.936331     1.928688     1.921045     1.913402     1.905759     1.898115     1.890472     1.882829     1.875186     1.867543
      1.859900     1.852257     1.844614     1.836971     1.829327     1.821684     1.814041     1.806398     1.798755     1.791112
      1.783469     1.775826     1.768183     1.760540     1.752896     1.745253     1.737610     1.729967     1.722324     1.714681
      1.707038     1.699395     1.691752     1.684108     1.676465     1.668822     1.661179     1.653536     1.645893     1.638250
      1.630607     1.622964     1.615321     1.607677     1.600034     1.592391     1.584748     1.577105     1.569462     1.561819
      1.554176     1.546533     1.538890     1.531246     1.523603     1.515960     1.508317     1.500674     1.493031     1.485388
      1.477745     1.470102     1.462458     1.454815     1.447172     1.439529     1.431886     1.424243     1.416600     1.408957
      1.401314     1.393671     1.386027     1.378384     1.370741     1.363098     1.355455     1.347812     1.340169     1.332526
      1.324883     1.317240     1.309596     1.301953     1.294310     1.286667     1.279024     1.271381     1.263738     1.256095
      1.248452     1.240808     1.233165     1.225522     1.217879     1.210236     1.202593     1.194950     1.187307     1.179664
      1.172021     1.164377     1.156734     1.149091     1.141448     1.133805     1.126162     1.118519     1.110876     1.103233
      1.095590     1.087946     1.080303     1.072660     1.065017     1.057374     1.049731     1.042088     1.034445     1.026802
      1.019158     1.011515     1.003872     0.996229     0.988586     0.980943     0.973300     0.965657     0.958014     0.950371
      0.942727     0.935084     0.927441     0.919798     0.912155     0.904512     0.896869     0.889226     0.881583     0.873940
      0.866296     0.858653     0.851010     0.843367     0.835724     0.828081     0.820438     0.812795     0.805152     0.797508
      0.789865     0.782222     0.774579     0.766936     0.759293     0.751650     0.744007     0.736364     0.728721     0.721077
      0.713434     0.705791     0.698148     0.690505     0.682862     0.675219     0.667576     0.659933     0.652290     0.644646
      0.637003     0.629360     0.621717     0.614074     0.606431     0.598788     0.591145     0.583502     0.575858     0.568215
      0.560572     0.552929     0.545286     0.537643     0.530000     0.522357     0.514714     0.507071     0.499427     0.491784
      0.484141     0.476498     0.468855     0.461212     0.453569     0.445925     0.438282     0.430639     0.422996     0.415353
      0.407710     0.400067     0.392424     0.384780     0.377137     0.369494     0.361851     0.354208     0.346565     0.338922
      0.331278     0.323635     0.315992     0.308349     0.300706     0.293063     0.285420     0.277777     0.270133     0.262490
      0.254847     0.247204     0.239561     0.231918     0.224275     0.216631     0.208988     0.201345
 NY phased data points follow
   1.10657E+01  1.17079E+01  1.14496E+01  1.56487E+01  1.56389E+01  1.83720E+01  1.25230E+01  1.60109E+01  1.76295E+01  2.03110E+01
   2.26288E+01  2.21862E+01  2.20251E+01  2.59601E+01  2.90348E+01  2.84358E+01  2.64029E+01  3.06496E+01  3.00424E+01  3.43220E+01
   3.61670E+01  3.80671E+01  3.30696E+01  3.18231E+01  3.96169E+01  4.38684E+01  3.63414E+01  4.18330E+01  4.43460E+01  4.53058E+01
   4.40775E+01  4.27184E+01  4.83204E+01  4.97472E+01  5.15002E+01  4.94146E+01  5.13223E+01  5.27204E+01  5.16393E+01  5.39497E+01
   5.42591E+01  5.68327E+01  5.57734E+01  5.70158E+01  5.85925E+01  5.61914E+01  6.40228E+01  6.12771E+01  6.39472E+01  6.19919E+01
   6.62696E+01  6.40439E+01  6.62322E+01  6.56912E+01  6.85256E+01  6.94544E+01  6.78748E+01  7.43870E+01  7.13063E+01  7.50969E+01
   6.95338E+01  7.71691E+01  7.82590E+01  7.52734E+01  7.78199E+01  7.69723E+01  7.73662E+01  7.84179E+01  8.12797E+01  8.08189E+01
   8.20316E+01  8.10383E+01  8.12752E+01  8.54213E+01  8.65189E+01  8.86384E+01  8.50138E+01  8.19966E+01  8.48418E+01  8.30680E+01
   8.31474E+01  8.35994E+01  8.40361E+01  8.35668E+01  8.32556E+01  8.48355E+01  8.72535E+01  8.56293E+01  8.75888E+01  8.79174E+01
   8.63050E+01  8.81020E+01  8.57981E+01  8.60060E+01  8.87885E+01  8.62694E+01  9.02113E+01  9.25169E+01  8.85775E+01  8.51686E+01
   8.55005E+01  8.04342E+01  8.05815E+01  7.83902E+01  7.99768E+01  7.79109E+01  7.88751E+01  7.76674E+01  7.83711E+01  7.74520E+01
   7.76701E+01  7.46352E+01  7.57934E+01  7.01765E+01  7.63076E+01  6.88156E+01  7.07214E+01  6.91932E+01  6.70303E+01  6.85603E+01
   6.60730E+01  6.34231E+01  6.21230E+01  6.10779E+01  6.20625E+01  5.80274E+01  5.73328E+01  5.73376E+01  5.78459E+01  5.25052E+01
   5.13734E+01  5.24305E+01  5.04413E+01  4.83706E+01  4.41731E+01  4.62478E+01  4.68469E+01  4.62233E+01  3.89540E+01  4.10841E+01
   3.50247E+01  3.66498E+01  3.44470E+01  3.22826E+01  2.68564E+01  2.26784E+01  2.51412E+01  2.22067E+01  1.95421E+01  1.95740E+01
   1.30695E+01  1.13677E+01  9.56985E+00  7.28440E+00  1.91224E+00 -2.38012E-01 -3.32024E+00 -2.26584E+00 -6.64894E+00 -1.35292E+01
  -1.73435E+01 -1.95010E+01 -2.03269E+01 -2.53262E+01 -3.22586E+01 -3.55222E+01 -4.24044E+01 -4.66656E+01 -4.90127E+01 -5.16832E+01
  -5.70233E+01 -6.59539E+01 -6.67509E+01 -7.07059E+01 -7.45036E+01 -8.19603E+01 -8.50731E+01 -9.07654E+01 -9.09066E+01 -9.73955E+01
  -9.73269E+01 -1.05146E+02 -1.06810E+02 -1.14927E+02 -1.16694E+02 -1.20024E+02 -1.23516E+02 -1.29672E+02 -1.31686E+02 -1.38029E+02
  -1.38835E+02 -1.42508E+02 -1.43859E+02 -1.47157E+02 -1.49102E+02 -1.54192E+02 -1.57661E+02 -1.61105E+02 -1.66409E+02 -1.70288E+02
  -1.71762E+02 -1.76827E+02 -1.76617E+02 -1.80892E+02 -1.83041E+02 -1.84303E+02 -1.84663E+02 -1.87931E+02 -1.91304E+02 -1.89960E+02
  -1.94133E+02 -1.92919E+02 -1.97456E+02 -1.93925E+02 -1.96291E+02 -1.98997E+02 -1.99680E+02 -2.00186E+02 -2.02427E+02 -2.01384E+02
  -2.00024E+02 -2.00570E+02 -1.99194E+02 -2.04453E+02 -2.03739E+02 -2.10272E+02 -2.07422E+02 -2.11436E+02 -2.10491E+02 -2.17616E+02
  -2.17075E+02 -2.24723E+02 -2.22006E+02 -2.29379E+02 -2.28768E+02 -2.25700E+02 -2.24407E+02 -2.27238E+02 -2.29316E+02 -2.36151E+02
  -2.42995E+02 -2.46225E+02 -2.46245E+02 -2.48924E+02 -2.49391E+02 -2.53716E+02 -2.51916E+02 -2.57477E+02 -2.57378E+02 -2.56604E+02
  -2.60138E+02 -2.65144E+02 -2.63576E+02 -2.64809E+02 -2.66266E+02 -2.69106E+02 -2.70152E+02 -2.67430E+02 -2.71371E+02 -2.72318E+02
  -2.70513E+02 -2.70401E+02 -2.72313E+02 -2.70682E+02 -2.67222E+02 -2.64577E+02 -2.64868E+02 -2.63000E+02 -2.59799E+02 -2.53262E+02
  -2.49708E+02 -2.38356E+02 -2.36997E+02 -2.29031E+02 -2.18320E+02 -2.09234E+02 -1.96425E+02 -1.85460E+02 -1.65866E+02 -1.50705E+02
  -1.33004E+02 -1.12231E+02 -8.43364E+01 -6.34348E+01 -3.62461E+01 -7.37624E+00  2.55898E+01  6.00722E+01  9.52763E+01  1.31077E+02
   1.72924E+02  2.15713E+02  2.61522E+02  3.09449E+02  3.57192E+02  4.07308E+02  4.62186E+02  5.14932E+02  5.64763E+02  6.19509E+02
   6.70511E+02  7.18401E+02  7.68623E+02  8.14875E+02  8.59514E+02  9.01455E+02  9.31070E+02  9.58874E+02  9.81140E+02  9.99353E+02
   1.00318E+03  1.00570E+03  9.99477E+02  9.84558E+02  9.61434E+02  9.37692E+02  9.02754E+02  8.65661E+02  8.23742E+02  7.74772E+02
   7.25789E+02  6.77493E+02  6.27347E+02  5.79808E+02  5.30210E+02  4.83876E+02  4.39230E+02  3.94115E+02  3.49845E+02  3.12990E+02
   2.80003E+02  2.45365E+02  2.15882E+02  1.86919E+02  1.63413E+02  1.38869E+02  1.17303E+02  9.97698E+01  8.05076E+01  6.27054E+01
   4.61513E+01  2.98880E+01  1.60486E+01  2.51705E+00 -8.03323E+00 -2.03785E+01 -2.82558E+01 -4.27755E+01 -4.78099E+01 -5.69251E+01
  -6.32495E+01 -6.83567E+01 -7.26600E+01 -8.30343E+01 -8.51253E+01 -8.89683E+01 -9.37194E+01 -1.00486E+02 -1.04456E+02 -1.04532E+02
  -1.11246E+02 -1.12794E+02 -1.15788E+02 -1.21829E+02 -1.22314E+02 -1.26247E+02 -1.32953E+02 -1.33055E+02 -1.34907E+02 -1.39873E+02
  -1.45734E+02 -1.45519E+02 -1.52387E+02 -1.52634E+02 -1.58804E+02 -1.60108E+02 -1.61386E+02 -1.69793E+02 -1.70004E+02 -1.71961E+02
  -1.73887E+02 -1.74684E+02 -1.77545E+02 -1.78822E+02 -1.83337E+02 -1.83029E+02 -1.83388E+02 -1.84677E+02 -1.88412E+02 -1.90394E+02
  -1.86575E+02 -1.87911E+02 -1.90555E+02 -1.90317E+02 -1.94219E+02 -1.90682E+02 -1.88712E+02 -1.91384E+02 -1.88045E+02 -1.86462E+02
  -1.88126E+02 -1.90763E+02 -1.85629E+02 -1.86224E+02 -1.86904E+02 -1.82332E+02 -1.85201E+02 -1.80015E+02 -1.79436E+02 -1.78494E+02
  -1.75967E+02 -1.73580E+02 -1.75378E+02 -1.74576E+02 -1.67200E+02 -1.67912E+02 -1.64333E+02 -1.62641E+02 -1.63770E+02 -1.58938E+02
  -1.58111E+02 -1.56812E+02 -1.52758E+02 -1.54539E+02 -1.49495E+02 -1.48171E+02 -1.46662E+02 -1.41536E+02 -1.43214E+02 -1.40384E+02
  -1.38633E+02 -1.36156E+02 -1.31825E+02 -1.26810E+02 -1.25756E+02 -1.24786E+02 -1.20267E+02 -1.20496E+02 -1.20637E+02 -1.17047E+02
  -1.12470E+02 -1.09041E+02 -1.09982E+02 -1.03922E+02 -1.01480E+02 -9.86827E+01 -9.77863E+01 -9.66499E+01 -9.52993E+01 -9.28204E+01
  -8.95172E+01 -8.61973E+01 -8.44254E+01 -7.96699E+01 -7.92065E+01 -7.58588E+01 -7.65744E+01 -7.25844E+01 -6.76719E+01 -7.02887E+01
  -6.38124E+01 -6.32392E+01 -5.69357E+01 -5.50421E+01 -5.36716E+01 -5.35749E+01 -5.02776E+01 -4.82174E+01 -4.24248E+01 -4.53528E+01
  -4.56588E+01 -3.42840E+01 -3.67055E+01 -3.83477E+01 -3.70310E+01 -3.17205E+01 -3.07865E+01 -2.79019E+01 -2.34871E+01 -2.03789E+01
  -2.29706E+01 -1.67263E+01 -1.54064E+01 -1.19687E+01 -1.62049E+01 -7.89333E+00 -8.34888E+00 -7.57456E+00 -2.77969E+00  8.41169E-01
   2.29360E+00  2.31218E+00  3.06659E+00  5.04320E+00  8.21569E+00  9.76849E+00  1.10829E+01  1.34122E+01
 NY points of the fit to the data follow
   8.23969E+00  1.39432E+01  9.31619E+00  1.41354E+01  1.17419E+01  1.65790E+01  1.52473E+01  2.01557E+01  1.88623E+01  2.25656E+01
   2.14635E+01  2.39119E+01  2.28370E+01  2.57801E+01  2.49175E+01  2.84462E+01  2.77784E+01  3.08474E+01  3.06671E+01  3.34807E+01
   3.31931E+01  3.62793E+01  3.60513E+01  3.86989E+01  3.87360E+01  4.04264E+01  4.03901E+01  4.14170E+01  4.21336E+01  4.29732E+01
   4.42753E+01  4.45097E+01  4.68050E+01  4.71724E+01  4.98060E+01  4.96326E+01  5.24766E+01  5.22583E+01  5.51591E+01  5.43232E+01
   5.69420E+01  5.62232E+01  5.86640E+01  5.78434E+01  5.99790E+01  5.92367E+01  6.18338E+01  6.18678E+01  6.37048E+01  6.34932E+01
   6.49954E+01  6.49551E+01  6.61587E+01  6.59001E+01  6.70900E+01  6.78669E+01  6.93554E+01  7.03641E+01  7.17337E+01  7.26605E+01
   7.38379E+01  7.49119E+01  7.57258E+01  7.65492E+01  7.72554E+01  7.80155E+01  7.86701E+01  7.93794E+01  7.99926E+01  8.06511E+01
   8.12125E+01  8.18093E+01  8.23166E+01  8.28419E+01  8.32904E+01  8.37373E+01  8.41171E+01  8.44774E+01  8.47795E+01  8.50505E+01
   8.52782E+01  8.54606E+01  8.56044E+01  8.57009E+01  8.57843E+01  8.59381E+01  8.60852E+01  8.61196E+01  8.62636E+01  8.62033E+01
   8.63916E+01  8.62368E+01  8.65000E+01  8.61706E+01  8.64816E+01  8.58994E+01  8.62034E+01  8.54210E+01  8.57349E+01  8.47262E+01
   8.50098E+01  8.37523E+01  8.39528E+01  8.24686E+01  8.25427E+01  8.08305E+01  8.07190E+01  7.88972E+01  7.86364E+01  7.68349E+01
   7.63737E+01  7.46210E+01  7.39893E+01  7.23591E+01  7.15912E+01  7.01839E+01  6.92977E+01  6.80204E+01  6.69997E+01  6.58487E+01
   6.47559E+01  6.37262E+01  6.25687E+01  6.15725E+01  6.03386E+01  5.94097E+01  5.81791E+01  5.71667E+01  5.58739E+01  5.47202E+01
   5.33667E+01  5.20688E+01  5.06350E+01  4.91590E+01  4.76445E+01  4.60274E+01  4.44348E+01  4.26866E+01  4.10148E+01  3.91394E+01
   3.73706E+01  3.53621E+01  3.34769E+01  3.13453E+01  2.93150E+01  2.70287E+01  2.48195E+01  2.23394E+01  1.99467E+01  1.73525E+01
   1.47515E+01  1.19423E+01  9.10509E+00  6.07571E+00  3.01632E+00 -1.87071E-01 -3.45414E+00 -6.86019E+00 -1.03333E+01 -1.39285E+01
  -1.75882E+01 -2.13322E+01 -2.51386E+01 -2.89942E+01 -3.29141E+01 -3.68747E+01 -4.08884E+01 -4.49400E+01 -4.90193E+01 -5.31254E+01
  -5.72272E+01 -6.13604E+01 -6.54435E+01 -6.95675E+01 -7.36071E+01 -7.77508E+01 -8.18899E+01 -8.60961E+01 -9.03888E+01 -9.48223E+01
  -9.91619E+01 -1.03692E+02 -1.08036E+02 -1.12425E+02 -1.16342E+02 -1.20555E+02 -1.24161E+02 -1.27986E+02 -1.31113E+02 -1.34703E+02
  -1.37597E+02 -1.41396E+02 -1.44999E+02 -1.48847E+02 -1.51999E+02 -1.55812E+02 -1.58835E+02 -1.62759E+02 -1.65687E+02 -1.69465E+02
  -1.71850E+02 -1.75335E+02 -1.76918E+02 -1.80306E+02 -1.81746E+02 -1.85109E+02 -1.86120E+02 -1.89416E+02 -1.89964E+02 -1.92990E+02
  -1.92956E+02 -1.95593E+02 -1.94874E+02 -1.97169E+02 -1.96205E+02 -1.98181E+02 -1.96966E+02 -1.98898E+02 -1.98571E+02 -2.00578E+02
  -2.00482E+02 -2.02407E+02 -2.02772E+02 -2.04309E+02 -2.05005E+02 -2.07153E+02 -2.08555E+02 -2.10960E+02 -2.12415E+02 -2.15315E+02
  -2.16874E+02 -2.20852E+02 -2.23078E+02 -2.27627E+02 -2.29023E+02 -2.33613E+02 -2.34242E+02 -2.38841E+02 -2.38597E+02 -2.43296E+02
  -2.42515E+02 -2.47320E+02 -2.46047E+02 -2.51000E+02 -2.49569E+02 -2.54306E+02 -2.52731E+02 -2.57246E+02 -2.55636E+02 -2.59567E+02
  -2.57994E+02 -2.61414E+02 -2.60092E+02 -2.63058E+02 -2.61993E+02 -2.64468E+02 -2.63448E+02 -2.65538E+02 -2.65043E+02 -2.66765E+02
  -2.66206E+02 -2.67381E+02 -2.66515E+02 -2.66656E+02 -2.65343E+02 -2.64863E+02 -2.62883E+02 -2.61321E+02 -2.58346E+02 -2.55252E+02
  -2.50714E+02 -2.45640E+02 -2.39014E+02 -2.31290E+02 -2.21973E+02 -2.11240E+02 -1.98810E+02 -1.84692E+02 -1.68839E+02 -1.51116E+02
  -1.31573E+02 -1.10123E+02 -8.67521E+01 -6.14193E+01 -3.41273E+01 -4.83505E+00  2.64769E+01  5.98765E+01  9.53984E+01  1.33127E+02
   1.73096E+02  2.15364E+02  2.59908E+02  3.06693E+02  3.55562E+02  4.06312E+02  4.58588E+02  5.11966E+02  5.65873E+02  6.19674E+02
   6.72609E+02  7.23908E+02  7.72740E+02  8.18330E+02  8.59940E+02  8.96984E+02  9.29048E+02  9.56093E+02  9.78662E+02  9.96294E+02
   1.00311E+03  1.00534E+03  9.97085E+02  9.85964E+02  9.62945E+02  9.38496E+02  9.00207E+02  8.67824E+02  8.21038E+02  7.80144E+02
   7.27310E+02  6.82627E+02  6.27059E+02  5.81679E+02  5.27665E+02  4.83309E+02  4.33977E+02  3.91488E+02  3.49678E+02  3.15704E+02
   2.79675E+02  2.46827E+02  2.17646E+02  1.87616E+02  1.65481E+02  1.37471E+02  1.18725E+02  9.62382E+01  8.15992E+01  5.88867E+01
   4.70040E+01  2.69784E+01  1.64129E+01  1.87765E+00 -7.44839E+00 -1.93113E+01 -2.83300E+01 -4.01322E+01 -4.80334E+01 -5.64770E+01
  -6.40623E+01 -6.92574E+01 -7.56611E+01 -8.03926E+01 -8.52639E+01 -8.93034E+01 -9.51529E+01 -9.90854E+01 -1.02919E+02 -1.05920E+02
  -1.08966E+02 -1.14266E+02 -1.16704E+02 -1.20574E+02 -1.22807E+02 -1.28046E+02 -1.30704E+02 -1.36353E+02 -1.36401E+02 -1.38657E+02
  -1.41033E+02 -1.45206E+02 -1.48155E+02 -1.52982E+02 -1.56523E+02 -1.64146E+02 -1.68535E+02 -1.70909E+02 -1.72429E+02 -1.73560E+02
  -1.74566E+02 -1.75566E+02 -1.76652E+02 -1.77839E+02 -1.79150E+02 -1.80553E+02 -1.82035E+02 -1.83541E+02 -1.85043E+02 -1.86475E+02
  -1.87810E+02 -1.88988E+02 -1.89993E+02 -1.90778E+02 -1.91340E+02 -1.91651E+02 -1.91724E+02 -1.91547E+02 -1.91147E+02 -1.90524E+02
  -1.89715E+02 -1.88725E+02 -1.87595E+02 -1.86334E+02 -1.84980E+02 -1.83539E+02 -1.82045E+02 -1.80498E+02 -1.78925E+02 -1.77321E+02
  -1.75708E+02 -1.74071E+02 -1.72429E+02 -1.70762E+02 -1.69086E+02 -1.67380E+02 -1.65656E+02 -1.63892E+02 -1.62101E+02 -1.60261E+02
  -1.58387E+02 -1.56460E+02 -1.54494E+02 -1.52473E+02 -1.50414E+02 -1.48303E+02 -1.46156E+02 -1.43961E+02 -1.41736E+02 -1.39469E+02
  -1.37178E+02 -1.34850E+02 -1.32506E+02 -1.30132E+02 -1.27747E+02 -1.25338E+02 -1.22923E+02 -1.20490E+02 -1.18055E+02 -1.15605E+02
  -1.13158E+02 -1.10699E+02 -1.08247E+02 -1.05785E+02 -1.03333E+02 -1.00873E+02 -9.84245E+01 -9.59712E+01 -9.35301E+01 -9.10862E+01
  -8.86559E+01 -8.62239E+01 -8.38065E+01 -8.13886E+01 -7.89866E+01 -7.65849E+01 -7.41998E+01 -7.18157E+01 -6.94489E+01 -6.70839E+01
  -6.47369E+01 -6.23922E+01 -6.00659E+01 -5.77425E+01 -5.54380E+01 -5.31369E+01 -5.08551E+01 -4.85771E+01 -4.63186E+01 -4.40643E+01
  -4.18299E+01 -3.96001E+01 -3.73905E+01 -3.51856E+01 -3.30011E+01 -3.08216E+01 -2.86629E+01 -2.65094E+01 -2.43768E+01 -2.22495E+01
  -2.01432E+01 -1.80424E+01 -1.59629E+01 -1.38890E+01 -1.18363E+01 -9.78926E+00 -7.76345E+00 -5.74337E+00 -3.74454E+00 -1.75130E+00
   2.20905E-01  2.18775E+00  4.13383E+00  6.07488E+00  7.99571E+00  9.91234E+00  1.18099E+01  1.37047E+01
 NY background values follow
     3.208E+00    3.637E+00    4.107E+00    4.615E+00    5.163E+00    5.747E+00    6.367E+00    7.022E+00    7.710E+00    8.431E+00
     9.183E+00    9.966E+00    1.078E+01    1.162E+01    1.248E+01    1.337E+01    1.429E+01    1.523E+01    1.619E+01    1.717E+01
     1.818E+01    1.920E+01    2.023E+01    2.129E+01    2.236E+01    2.344E+01    2.454E+01    2.565E+01    2.677E+01    2.790E+01
     2.903E+01    3.018E+01    3.133E+01    3.248E+01    3.364E+01    3.480E+01    3.596E+01    3.713E+01    3.829E+01    3.945E+01
     4.061E+01    4.176E+01    4.290E+01    4.404E+01    4.518E+01    4.630E+01    4.741E+01    4.852E+01    4.960E+01    5.068E+01
     5.174E+01    5.279E+01    5.382E+01    5.483E+01    5.582E+01    5.679E+01    5.774E+01    5.866E+01    5.956E+01    6.044E+01
     6.129E+01    6.212E+01    6.291E+01    6.368E+01    6.441E+01    6.511E+01    6.578E+01    6.642E+01    6.702E+01    6.758E+01
     6.811E+01    6.859E+01    6.904E+01    6.944E+01    6.981E+01    7.013E+01    7.040E+01    7.063E+01    7.081E+01    7.095E+01
     7.103E+01    7.107E+01    7.105E+01    7.098E+01    7.086E+01    7.068E+01    7.045E+01    7.017E+01    6.983E+01    6.945E+01
     6.901E+01    6.852E+01    6.798E+01    6.739E+01    6.674E+01    6.605E+01    6.531E+01    6.452E+01    6.367E+01    6.278E+01
     6.184E+01    6.086E+01    5.982E+01    5.874E+01    5.760E+01    5.643E+01    5.520E+01    5.393E+01    5.261E+01    5.125E+01
     4.984E+01    4.838E+01    4.688E+01    4.533E+01    4.374E+01    4.211E+01    4.043E+01    3.871E+01    3.695E+01    3.514E+01
     3.329E+01    3.139E+01    2.946E+01    2.748E+01    2.546E+01    2.340E+01    2.130E+01    1.916E+01    1.698E+01    1.476E+01
     1.250E+01    1.020E+01    7.862E+00    5.484E+00    3.067E+00    6.131E-01   -1.879E+00   -4.409E+00   -6.976E+00   -9.580E+00
    -1.222E+01   -1.490E+01   -1.761E+01   -2.036E+01   -2.314E+01   -2.596E+01   -2.882E+01   -3.170E+01   -3.463E+01   -3.758E+01
    -4.057E+01   -4.360E+01   -4.665E+01   -4.974E+01   -5.286E+01   -5.602E+01   -5.920E+01   -6.242E+01   -6.567E+01   -6.895E+01
    -7.225E+01   -7.559E+01   -7.896E+01   -8.236E+01   -8.579E+01   -8.925E+01   -9.274E+01   -9.625E+01   -9.979E+01   -1.034E+02
    -1.070E+02   -1.106E+02   -1.142E+02   -1.179E+02   -1.216E+02   -1.253E+02   -1.290E+02   -1.327E+02   -1.365E+02   -1.403E+02
    -1.441E+02   -1.479E+02   -1.517E+02   -1.555E+02   -1.594E+02   -1.633E+02   -1.671E+02   -1.710E+02   -1.749E+02   -1.788E+02
    -1.827E+02   -1.866E+02   -1.905E+02   -1.944E+02   -1.984E+02   -2.023E+02   -2.062E+02   -2.101E+02   -2.140E+02   -2.180E+02
    -2.219E+02   -2.258E+02   -2.297E+02   -2.336E+02   -2.375E+02   -2.414E+02   -2.453E+02   -2.491E+02   -2.530E+02   -2.568E+02
    -2.607E+02   -2.645E+02   -2.683E+02   -2.721E+02   -2.759E+02   -2.796E+02   -2.833E+02   -2.871E+02   -2.908E+02   -2.944E+02
    -2.981E+02   -3.017E+02   -3.053E+02   -3.089E+02   -3.125E+02   -3.160E+02   -3.195E+02   -3.230E+02   -3.265E+02   -3.299E+02
    -3.333E+02   -3.366E+02   -3.399E+02   -3.432E+02   -3.465E+02   -3.497E+02   -3.529E+02   -3.560E+02   -3.591E+02   -3.622E+02
    -3.652E+02   -3.682E+02   -3.711E+02   -3.740E+02   -3.769E+02   -3.797E+02   -3.824E+02   -3.851E+02   -3.878E+02   -3.904E+02
    -3.930E+02   -3.955E+02   -3.979E+02   -4.003E+02   -4.027E+02   -4.050E+02   -4.073E+02   -4.095E+02   -4.117E+02   -4.138E+02
    -4.158E+02   -4.179E+02   -4.198E+02   -4.217E+02   -4.236E+02   -4.254E+02   -4.272E+02   -4.289E+02   -4.305E+02   -4.321E+02
    -4.337E+02   -4.352E+02   -4.367E+02   -4.381E+02   -4.394E+02   -4.408E+02   -4.420E+02   -4.432E+02   -4.444E+02   -4.455E+02
    -4.465E+02   -4.476E+02   -4.485E+02   -4.494E+02   -4.503E+02   -4.511E+02   -4.518E+02   -4.525E+02   -4.532E+02   -4.538E+02
    -4.543E+02   -4.548E+02   -4.553E+02   -4.557E+02   -4.560E+02   -4.563E+02   -4.566E+02   -4.568E+02   -4.569E+02   -4.570E+02
    -4.570E+02   -4.570E+02   -4.570E+02   -4.569E+02   -4.567E+02   -4.565E+02   -4.562E+02   -4.559E+02   -4.555E+02   -4.551E+02
    -4.546E+02   -4.541E+02   -4.535E+02   -4.529E+02   -4.522E+02   -4.515E+02   -4.507E+02   -4.499E+02   -4.490E+02   -4.481E+02
    -4.471E+02   -4.461E+02   -4.450E+02   -4.438E+02   -4.426E+02   -4.414E+02   -4.401E+02   -4.388E+02   -4.374E+02   -4.359E+02
    -4.344E+02   -4.328E+02   -4.312E+02   -4.296E+02   -4.279E+02   -4.261E+02   -4.243E+02   -4.225E+02   -4.206E+02   -4.186E+02
    -4.166E+02   -4.146E+02   -4.125E+02   -4.104E+02   -4.082E+02   -4.060E+02   -4.037E+02   -4.014E+02   -3.991E+02   -3.967E+02
    -3.943E+02   -3.919E+02   -3.894E+02   -3.869E+02   -3.843E+02   -3.818E+02   -3.791E+02   -3.765E+02   -3.738E+02   -3.711E+02
    -3.684E+02   -3.656E+02   -3.628E+02   -3.600E+02   -3.571E+02   -3.542E+02   -3.513E+02   -3.484E+02   -3.454E+02   -3.425E+02
    -3.395E+02   -3.365E+02   -3.334E+02   -3.304E+02   -3.273E+02   -3.242E+02   -3.211E+02   -3.180E+02   -3.148E+02   -3.117E+02
    -3.085E+02   -3.053E+02   -3.021E+02   -2.989E+02   -2.957E+02   -2.924E+02   -2.892E+02   -2.860E+02   -2.827E+02   -2.795E+02
    -2.762E+02   -2.729E+02   -2.696E+02   -2.664E+02   -2.631E+02   -2.598E+02   -2.565E+02   -2.532E+02   -2.499E+02   -2.467E+02
    -2.434E+02   -2.401E+02   -2.368E+02   -2.336E+02   -2.303E+02   -2.270E+02   -2.238E+02   -2.205E+02   -2.173E+02   -2.141E+02
    -2.108E+02   -2.076E+02   -2.044E+02   -2.013E+02   -1.981E+02   -1.949E+02   -1.918E+02   -1.887E+02   -1.856E+02   -1.825E+02
    -1.794E+02   -1.763E+02   -1.732E+02   -1.702E+02   -1.672E+02   -1.642E+02   -1.612E+02   -1.582E+02   -1.552E+02   -1.523E+02
    -1.493E+02   -1.464E+02   -1.435E+02   -1.406E+02   -1.377E+02   -1.348E+02   -1.320E+02   -1.291E+02   -1.263E+02   -1.235E+02
    -1.207E+02   -1.179E+02   -1.152E+02   -1.124E+02   -1.097E+02   -1.070E+02   -1.043E+02   -1.016E+02   -9.890E+01   -9.624E+01
    -9.360E+01   -9.097E+01   -8.836E+01   -8.576E+01   -8.318E+01   -8.061E+01   -7.805E+01   -7.552E+01   -7.299E+01   -7.049E+01
    -6.799E+01   -6.552E+01   -6.306E+01   -6.061E+01   -5.818E+01   -5.577E+01   -5.337E+01   -5.099E+01   -4.862E+01   -4.627E+01
    -4.393E+01   -4.161E+01   -3.930E+01   -3.701E+01   -3.474E+01   -3.248E+01   -3.024E+01   -2.802E+01   -2.581E+01   -2.361E+01
    -2.143E+01   -1.927E+01   -1.712E+01   -1.499E+01   -1.288E+01   -1.078E+01   -8.700E+00   -6.634E+00   -4.584E+00   -2.551E+00
    -5.333E-01    1.468E+00    3.452E+00    5.421E+00    7.373E+00    9.309E+00    1.123E+01    1.313E+01
 Ala      Conc. = 3.54E+04
