 LCModel (Version 6.3-1L) Copyright: S.W. Provencher.          Ref.: Magn. Reson. Med. 30:672-679 (1993).                
 Slice#3 Row#2 Col#7  K_02_press_1_raw_act
 36 lines in following concentration table = NCONC+1
    Conc.  %SD /Cr+PCr  Metabolite                                         
    0.000 999%   0.000 Ala                                                 
   81.652 111%   0.184 Asp                                                 
  345.559  30%   0.779 Cr                                                  
   98.174 111%   0.221 PCr                                                 
   54.958 101%   0.124 GABA                                                
   74.126  76%   0.167 Glc                                                 
  310.312  47%   0.699 Gln                                                 
  679.233  24%   1.531 Glu                                                 
  140.269  10%   0.316 GPC                                                 
    0.000 999%   0.000 PCh                                                 
  214.909  23%   0.484 GSH                                                 
  720.287  22%   1.623 Ins                                                 
    0.000 999%   0.000 Lac                                                 
  779.231  10%   1.756 NAA                                                 
   89.326  96%   0.201 NAAG                                                
   24.379  57% 5.5E-02 Scyllo                                              
   63.088 135%   0.142 Tau                                                 
   69.443  90%   0.156 -CrCH2                                              
  140.269  10%   0.316 GPC+PCh                                             
  868.556   7%   1.957 NAA+NAAG                                            
  443.734   9%   1.000 Cr+PCr                                              
  989.545  23%   2.230 Glu+Gln                                             
  231.804 360%   0.522 Lip13a                                              
  488.958 125%   1.102 Lip13b                                              
    0.000 999%   0.000 Lip09                                               
 1.20E+03  13%   2.699 MM09                                                
    1.589 999% 3.6E-03 Lip20                                               
 1.63E+03  17%   3.664 MM20                                                
  541.908  29%   1.221 MM12                                                
 3.51E+03   5%   7.911 MM14                                                
 1.53E+03  18%   3.438 MM17                                                
  720.762  46%   1.624 Lip13a+Lip13b                                       
 4.77E+03   6%  10.756 MM14+Lip13a+Lip13b+MM12                             
 1.20E+03  13%   2.699 MM09+Lip09                                          
 1.63E+03  17%   3.668 MM20+Lip20                                          
   6 lines in following misc. output table
  FWHM = 0.046 ppm    S/N =   6                                            
  Data shift = 0.008 ppm                                                   
  Ph:  64 deg      16.3 deg/ppm                                            
  alphaB,S = 8.5E+01,   6.4E+01                                            
   14 spline knots.   Ns = 6(1)                                            
   2 inflections.     1 extrema                                            
  498 points on ppm-axis = NY
      4.000000     3.992357     3.984714     3.977070     3.969427     3.961784     3.954141     3.946497     3.938854     3.931211
      3.923568     3.915925     3.908281     3.900638     3.892995     3.885352     3.877708     3.870065     3.862422     3.854779
      3.847136     3.839492     3.831849     3.824206     3.816563     3.808919     3.801276     3.793633     3.785990     3.778347
      3.770703     3.763060     3.755417     3.747774     3.740130     3.732487     3.724844     3.717201     3.709558     3.701914
      3.694271     3.686628     3.678985     3.671341     3.663698     3.656055     3.648412     3.640769     3.633125     3.625482
      3.617839     3.610196     3.602552     3.594909     3.587266     3.579623     3.571980     3.564336     3.556693     3.549050
      3.541407     3.533763     3.526120     3.518477     3.510834     3.503191     3.495547     3.487904     3.480261     3.472618
      3.464974     3.457331     3.449688     3.442045     3.434402     3.426758     3.419115     3.411472     3.403829     3.396185
      3.388542     3.380899     3.373256     3.365613     3.357969     3.350326     3.342683     3.335040     3.327396     3.319753
      3.312110     3.304467     3.296824     3.289180     3.281537     3.273894     3.266251     3.258607     3.250964     3.243321
      3.235678     3.228034     3.220391     3.212748     3.205105     3.197462     3.189818     3.182175     3.174532     3.166889
      3.159245     3.151602     3.143959     3.136316     3.128673     3.121029     3.113386     3.105743     3.098100     3.090456
      3.082813     3.075170     3.067527     3.059884     3.052240     3.044597     3.036954     3.029311     3.021667     3.014024
      3.006381     2.998738     2.991095     2.983451     2.975808     2.968165     2.960522     2.952878     2.945235     2.937592
      2.929949     2.922306     2.914662     2.907019     2.899376     2.891733     2.884089     2.876446     2.868803     2.861160
      2.853517     2.845873     2.838230     2.830587     2.822944     2.815300     2.807657     2.800014     2.792371     2.784728
      2.777084     2.769441     2.761798     2.754155     2.746511     2.738868     2.731225     2.723582     2.715939     2.708295
      2.700652     2.693009     2.685366     2.677722     2.670079     2.662436     2.654793     2.647150     2.639506     2.631863
      2.624220     2.616577     2.608933     2.601290     2.593647     2.586004     2.578361     2.570717     2.563074     2.555431
      2.547788     2.540144     2.532501     2.524858     2.517215     2.509572     2.501928     2.494285     2.486642     2.478999
      2.471355     2.463712     2.456069     2.448426     2.440783     2.433139     2.425496     2.417853     2.410210     2.402566
      2.394923     2.387280     2.379637     2.371994     2.364350     2.356707     2.349064     2.341421     2.333777     2.326134
      2.318491     2.310848     2.303205     2.295561     2.287918     2.280275     2.272632     2.264988     2.257345     2.249702
      2.242059     2.234416     2.226772     2.219129     2.211486     2.203843     2.196199     2.188556     2.180913     2.173270
      2.165627     2.157983     2.150340     2.142697     2.135054     2.127410     2.119767     2.112124     2.104481     2.096838
      2.089194     2.081551     2.073908     2.066265     2.058621     2.050978     2.043335     2.035692     2.028049     2.020405
      2.012762     2.005119     1.997476     1.989833     1.982190     1.974546     1.966903     1.959260     1.951617     1.943974
      1.936331     1.928688     1.921045     1.913402     1.905759     1.898115     1.890472     1.882829     1.875186     1.867543
      1.859900     1.852257     1.844614     1.836971     1.829327     1.821684     1.814041     1.806398     1.798755     1.791112
      1.783469     1.775826     1.768183     1.760540     1.752896     1.745253     1.737610     1.729967     1.722324     1.714681
      1.707038     1.699395     1.691752     1.684108     1.676465     1.668822     1.661179     1.653536     1.645893     1.638250
      1.630607     1.622964     1.615321     1.607677     1.600034     1.592391     1.584748     1.577105     1.569462     1.561819
      1.554176     1.546533     1.538890     1.531246     1.523603     1.515960     1.508317     1.500674     1.493031     1.485388
      1.477745     1.470102     1.462458     1.454815     1.447172     1.439529     1.431886     1.424243     1.416600     1.408957
      1.401314     1.393671     1.386027     1.378384     1.370741     1.363098     1.355455     1.347812     1.340169     1.332526
      1.324883     1.317240     1.309596     1.301953     1.294310     1.286667     1.279024     1.271381     1.263738     1.256095
      1.248452     1.240808     1.233165     1.225522     1.217879     1.210236     1.202593     1.194950     1.187307     1.179664
      1.172021     1.164377     1.156734     1.149091     1.141448     1.133805     1.126162     1.118519     1.110876     1.103233
      1.095590     1.087946     1.080303     1.072660     1.065017     1.057374     1.049731     1.042088     1.034445     1.026802
      1.019158     1.011515     1.003872     0.996229     0.988586     0.980943     0.973300     0.965657     0.958014     0.950371
      0.942727     0.935084     0.927441     0.919798     0.912155     0.904512     0.896869     0.889226     0.881583     0.873940
      0.866296     0.858653     0.851010     0.843367     0.835724     0.828081     0.820438     0.812795     0.805152     0.797508
      0.789865     0.782222     0.774579     0.766936     0.759293     0.751650     0.744007     0.736364     0.728721     0.721077
      0.713434     0.705791     0.698148     0.690505     0.682862     0.675219     0.667576     0.659933     0.652290     0.644646
      0.637003     0.629360     0.621717     0.614074     0.606431     0.598788     0.591145     0.583502     0.575858     0.568215
      0.560572     0.552929     0.545286     0.537643     0.530000     0.522357     0.514714     0.507071     0.499427     0.491784
      0.484141     0.476498     0.468855     0.461212     0.453569     0.445925     0.438282     0.430639     0.422996     0.415353
      0.407710     0.400067     0.392424     0.384780     0.377137     0.369494     0.361851     0.354208     0.346565     0.338922
      0.331278     0.323635     0.315992     0.308349     0.300706     0.293063     0.285420     0.277777     0.270133     0.262490
      0.254847     0.247204     0.239561     0.231918     0.224275     0.216631     0.208988     0.201345
 NY phased data points follow
   5.98165E+00  6.06558E+00  7.38475E+00  5.80462E+00  7.43356E+00  9.56693E+00  8.16367E+00  9.37737E+00  1.22946E+01  8.67841E+00
   1.49721E+01  9.58727E+00  1.68331E+01  1.20911E+01  1.31991E+01  1.20698E+01  5.81967E+00  6.32939E+00  1.11785E+01  6.76867E+00
   8.34527E+00  1.01286E+01  5.51038E+00  1.09555E+01  7.16963E+00  7.78488E+00  9.94280E+00  1.20648E+01  9.08015E+00  8.29151E+00
   9.82768E+00  9.94696E+00  1.11625E+01  1.38672E+01  1.12309E+01  9.55498E+00  8.48758E+00  7.00101E+00  1.19956E+01  6.20697E+00
   7.09566E+00  4.96280E+00  1.27604E+01  7.35398E+00  1.14419E+01  7.78022E+00  9.79784E+00  9.14896E+00  9.87568E+00  7.29522E+00
   9.17178E+00  7.88566E+00  9.43771E+00  6.24713E+00  7.60883E+00  3.28115E+00  9.65522E+00  3.32321E+00  7.00700E+00  5.25329E+00
   5.44882E+00  7.14073E+00  7.45551E+00  3.82444E+00  8.96021E+00  4.50157E+00  1.37313E+00  2.12906E+00  8.08161E+00  4.70255E+00
   8.47475E+00  8.25820E+00  5.46332E+00  3.18971E+00  3.57705E+00  1.61458E+00  6.34172E+00  5.02158E+00  6.84606E+00  7.64600E+00
   4.60562E+00  7.19060E+00  6.00819E+00  5.49390E+00  5.69400E+00  3.31761E+00  6.53682E+00  3.63793E+00  4.11269E+00  3.77360E+00
   4.49500E+00  4.57475E+00  4.92595E+00  9.36625E+00  6.36186E+00  6.06930E+00  3.65715E+00  1.46618E+00  7.80192E+00  8.59500E+00
   1.02171E+01  8.44584E+00  1.74217E+01  1.75560E+01  1.80273E+01  1.64464E+01  1.64937E+01  8.27552E+00  8.19022E+00  6.81012E+00
   9.54872E+00  6.39362E+00  5.76259E+00  5.75182E+00  2.61234E+00  6.92494E+00  2.81010E+00  5.41964E+00  7.88701E+00  2.27035E+00
   2.29250E+00  3.88740E+00  5.82173E+00  9.86382E+00  1.17780E+01  1.25142E+01  1.76946E+01  2.06332E+01  2.17759E+01  2.35151E+01
   1.80483E+01  1.26938E+01  1.14416E+01  5.51631E+00  5.60456E+00  4.45218E+00  3.69263E+00  3.32171E+00  3.46237E+00  4.11055E+00
   5.71891E+00  3.40139E+00  6.43326E+00  1.95136E+00  3.34618E+00  6.90454E+00  3.06728E+00  5.39849E+00  7.12721E+00  3.59531E+00
   3.25794E+00  1.87180E+00  3.54139E+00  3.67793E+00  1.50406E+00  1.45492E+00  6.50795E+00  2.11910E+00  4.51999E+00  4.28418E-01
  -6.13217E-01  9.37426E-01  1.87881E+00  1.16471E+00 -4.21918E-01  1.92618E+00 -1.30865E+00  2.35741E+00  2.06615E+00  5.76942E+00
   2.79169E-01  1.93105E+00 -2.39031E+00 -1.82504E+00 -1.36522E-01 -4.04452E+00 -2.71178E+00 -3.09418E-01  3.03397E+00  1.02188E+00
  -6.71200E-02  1.12780E+00 -3.53488E+00 -2.76133E+00 -3.76592E+00  7.06779E-01 -8.44477E-01  4.43012E+00 -2.07072E+00 -1.00441E+00
  -9.38185E-01  5.88278E+00  3.64838E+00  2.17768E+00  3.78309E+00  2.79426E+00  2.69393E+00  3.36569E+00  4.08220E-01 -2.47036E+00
   1.43908E+00  1.78988E+00  2.84309E+00  5.59957E+00  5.19641E+00  9.15847E-01  4.27372E+00  8.27084E-01  2.97097E-01  2.56819E+00
   3.46445E+00  4.16014E-01 -3.97040E-01  3.03185E+00  9.09409E+00  1.06963E+01  1.31278E+01  6.92757E+00  7.65406E+00  1.11044E+00
   6.61765E+00  2.42204E+00 -1.10478E+00  1.15770E+00  5.36192E+00  6.93919E+00  7.21512E+00  7.53276E+00  3.55379E+00  8.17787E+00
   4.78803E+00  8.34678E+00  6.31354E+00  4.78004E+00  1.04891E+00  4.51321E+00  5.20536E+00  9.12117E+00  9.33384E+00  5.83303E+00
   5.43974E+00  3.96859E+00  7.58043E+00  3.32696E+00  7.88500E+00  1.11156E+01  9.95256E+00  7.49119E+00  1.10227E+01  1.37305E+01
   9.23612E+00  1.64206E+01  1.42526E+01  1.51034E+01  1.74732E+01  1.66257E+01  1.89696E+01  2.96470E+01  2.99370E+01  3.80731E+01
   4.07863E+01  4.00708E+01  3.24727E+01  1.90684E+01  1.48178E+01  5.78659E+00  5.57269E+00  7.42989E+00  4.85715E+00  3.87951E+00
  -6.22279E-01  7.12723E+00  8.31325E+00  4.80890E+00  3.88371E+00  3.34519E+00  4.29326E+00  7.79326E+00  2.77586E+00  6.52914E+00
   4.90752E+00  7.95435E+00  6.62384E+00  8.40627E+00  2.09895E+00  5.07631E+00  4.65939E+00  5.69383E+00  2.37527E+00  7.25179E+00
   3.28312E+00  1.42500E-01  7.69740E+00  3.22439E+00  1.00650E+01  6.80858E+00  6.99712E+00  7.93608E+00  2.32309E+00  8.62070E+00
   9.86103E+00  1.16747E+01  1.16860E+01  1.03010E+01  1.09607E+01  1.11555E+01  1.62562E+01  1.33120E+01  1.61967E+01  1.57759E+01
   1.89348E+01  1.77362E+01  1.86361E+01  1.48013E+01  2.09179E+01  1.70966E+01  1.63859E+01  2.51296E+01  2.39640E+01  2.18832E+01
   2.55267E+01  2.37982E+01  2.46547E+01  2.45762E+01  2.49392E+01  2.85560E+01  2.86994E+01  2.49641E+01  3.48093E+01  3.30003E+01
   3.09718E+01  3.27516E+01  3.04468E+01  3.02880E+01  3.27928E+01  3.16334E+01  2.49045E+01  2.59080E+01  1.82248E+01  1.80864E+01
   1.28305E+01  1.43835E+01  1.25777E+01  1.23467E+01  1.68963E+01  1.09439E+01  9.26587E+00  1.32936E+01  1.04298E+01  1.25317E+01
   6.34189E+00  1.20084E+01  1.07686E+01  1.14927E+01  1.15483E+01  8.11971E+00  1.33488E+01  8.93462E+00  1.44105E+01  8.89314E+00
   1.17987E+01  1.00389E+01  1.00841E+01  7.07332E+00  7.84253E+00  9.60814E+00  1.51077E+01  9.47406E+00  5.17548E+00  6.02116E+00
   7.58097E+00  8.21431E+00  4.07772E+00  6.54580E+00  8.81918E+00  7.95726E+00  6.36517E+00  8.88317E+00  2.80105E+00  1.02817E+01
   4.47679E+00  8.77077E+00  7.97863E+00  7.35117E+00  6.74662E+00  4.79960E+00  4.12971E+00  8.31146E+00  8.56269E+00  8.72762E+00
   1.00612E+01  1.05983E+01  5.35617E+00  6.86895E+00  7.91764E+00  6.70762E+00  8.29069E+00  6.94818E+00  8.83655E+00  8.72716E+00
   1.04939E+01  9.68578E+00  8.65147E+00  1.20558E+01  9.79778E+00  1.09455E+01  8.81886E+00  6.15363E+00  9.85387E+00  4.78487E+00
   7.44180E+00  7.25511E+00  8.26178E+00  6.42277E+00  2.45975E+00  4.57110E+00  8.49776E+00  4.58601E+00  6.20992E+00  2.18501E+00
   1.25717E+00  5.99962E+00  6.08954E+00  3.29614E+00  7.84598E+00  6.92633E+00  4.25797E+00  5.35209E+00  2.27534E+00  7.84645E+00
   3.57484E+00  3.35181E+00  6.38984E+00  3.00968E+00  4.53045E+00  5.70912E+00  1.15812E+00  4.04652E+00  2.08097E+00  3.58156E+00
   2.34707E+00  3.34223E+00  5.70444E-01 -5.14288E+00  4.16898E+00  3.45464E+00  6.62645E+00  3.26102E+00  6.24774E+00  4.86863E+00
   4.00910E+00  2.87595E+00  2.82714E+00  4.23847E+00  3.21416E+00  2.80082E+00  1.63537E-01 -1.55047E+00  5.73772E+00  4.63017E+00
   1.73331E+00  3.85064E+00 -3.79822E-01  3.21303E-01 -5.08591E-01  1.17762E+00  2.03421E+00  1.60128E+00  1.44594E-01  3.23891E+00
   4.76771E-01  3.28878E+00  1.04793E+00  3.19602E+00  5.29593E+00  1.19752E+00  2.57625E+00 -1.38085E+00  9.23223E-01  1.27619E+00
   9.87286E-01 -5.02624E-01  2.15018E+00  3.71168E+00  2.89310E+00 -3.19472E+00  2.42273E+00  1.95941E+00  5.24254E+00  2.78321E-01
   4.14448E+00 -3.36198E-01 -5.61231E-01  5.38761E-01  3.78232E+00  2.68750E+00  4.37832E+00  7.89836E-01
 NY points of the fit to the data follow
   6.10975E+00  5.90701E+00  5.88997E+00  6.03692E+00  6.32438E+00  6.80752E+00  7.72199E+00  8.91710E+00  1.02111E+01  1.16112E+01
   1.30623E+01  1.42877E+01  1.48036E+01  1.42033E+01  1.25221E+01  1.03159E+01  8.31558E+00  6.97040E+00  6.30622E+00  6.07820E+00
   6.07108E+00  6.14305E+00  6.17341E+00  6.16958E+00  6.30372E+00  6.60666E+00  7.05513E+00  7.77740E+00  8.87829E+00  1.03070E+01
   1.17198E+01  1.26191E+01  1.25814E+01  1.15149E+01  9.78361E+00  7.89727E+00  6.28455E+00  5.20475E+00  4.72646E+00  4.74559E+00
   5.12040E+00  5.80262E+00  6.69425E+00  7.63461E+00  8.55986E+00  9.49876E+00  1.03722E+01  1.09005E+01  1.07326E+01  9.71636E+00
   8.09188E+00  6.37758E+00  5.07845E+00  4.46338E+00  4.46379E+00  4.83146E+00  5.35431E+00  5.89389E+00  6.38222E+00  6.75667E+00
   6.92420E+00  6.80687E+00  6.38783E+00  5.78834E+00  5.20555E+00  4.84108E+00  4.81119E+00  5.05427E+00  5.43126E+00  5.82425E+00
   6.16682E+00  6.41516E+00  6.54708E+00  6.55785E+00  6.45207E+00  6.26052E+00  6.02461E+00  5.77524E+00  5.53621E+00  5.34297E+00
   5.26143E+00  5.26292E+00  5.27533E+00  5.26442E+00  5.20825E+00  5.05985E+00  4.76657E+00  4.32568E+00  3.84218E+00  3.49388E+00
   3.44143E+00  3.68592E+00  4.08586E+00  4.47550E+00  4.74609E+00  4.89277E+00  5.01993E+00  5.51313E+00  6.73936E+00  8.38964E+00
   1.04249E+01  1.29247E+01  1.56654E+01  1.79275E+01  1.87107E+01  1.73939E+01  1.42899E+01  1.05425E+01  7.38092E+00  5.41478E+00
   4.53654E+00  4.25918E+00  4.24028E+00  4.29346E+00  4.35375E+00  4.40869E+00  4.46269E+00  4.51698E+00  4.58410E+00  4.70078E+00
   4.96989E+00  5.72382E+00  7.31840E+00  9.46648E+00  1.19933E+01  1.49234E+01  1.80231E+01  2.06053E+01  2.16810E+01  2.05274E+01
   1.73599E+01  1.33120E+01  9.66866E+00  7.11503E+00  5.59309E+00  4.62814E+00  3.95626E+00  3.54053E+00  3.45761E+00  3.72118E+00
   4.20719E+00  4.70214E+00  5.02163E+00  5.09232E+00  4.94655E+00  4.67827E+00  4.38454E+00  4.11744E+00  3.89063E+00  3.69274E+00
   3.52161E+00  3.37655E+00  3.25559E+00  3.15807E+00  3.06023E+00  2.95087E+00  2.85426E+00  2.76022E+00  2.65046E+00  2.51155E+00
   2.34659E+00  2.24745E+00  2.28940E+00  2.44831E+00  2.60746E+00  2.64575E+00  2.52335E+00  2.30060E+00  2.07867E+00  1.90584E+00
   1.76534E+00  1.66807E+00  1.59316E+00  1.50548E+00  1.38687E+00  1.26315E+00  1.22483E+00  1.30128E+00  1.44152E+00  1.53765E+00
   1.51006E+00  1.40711E+00  1.37194E+00  1.46031E+00  1.64282E+00  1.88807E+00  2.21396E+00  2.66397E+00  3.24164E+00  3.87107E+00
   4.40237E+00  4.65564E+00  4.51989E+00  4.07710E+00  3.49465E+00  2.92349E+00  2.50430E+00  2.36427E+00  2.56998E+00  3.14951E+00
   4.03742E+00  5.01694E+00  5.82146E+00  6.22478E+00  6.03519E+00  5.31587E+00  4.23466E+00  2.95270E+00  1.73739E+00  8.82647E-01
   7.25945E-01  1.35771E+00  2.64616E+00  4.34658E+00  6.06910E+00  7.34579E+00  7.71786E+00  7.01182E+00  5.47551E+00  3.59725E+00
   1.86662E+00  7.01406E-01  3.79467E-01  9.73116E-01  2.33136E+00  4.03035E+00  5.53639E+00  6.49811E+00  6.83460E+00  6.68490E+00
   6.27313E+00  5.88260E+00  5.74663E+00  5.93536E+00  6.37618E+00  6.94751E+00  7.50980E+00  7.88546E+00  8.02398E+00  7.91503E+00
   7.58629E+00  7.14081E+00  6.77841E+00  6.69252E+00  6.96126E+00  7.53188E+00  8.23755E+00  8.88296E+00  9.33660E+00  9.62187E+00
   9.94550E+00  1.04050E+01  1.10867E+01  1.24610E+01  1.54689E+01  1.93804E+01  2.35369E+01  2.79789E+01  3.26445E+01  3.67716E+01
   3.87654E+01  3.71207E+01  3.17127E+01  2.42019E+01  1.70419E+01  1.18730E+01  8.95025E+00  7.45683E+00  6.67139E+00  6.17745E+00
   5.82260E+00  5.57684E+00  5.43215E+00  5.37378E+00  5.35695E+00  5.32132E+00  5.22271E+00  5.05154E+00  4.82799E+00  4.58943E+00
   4.37264E+00  4.20037E+00  4.08246E+00  4.01987E+00  4.00597E+00  4.02955E+00  4.08208E+00  4.15977E+00  4.26412E+00  4.40216E+00
   4.58356E+00  4.81672E+00  5.10585E+00  5.45051E+00  5.84981E+00  6.30359E+00  6.81168E+00  7.37313E+00  7.98486E+00  8.64112E+00
   9.33399E+00  1.00534E+01  1.07869E+01  1.15203E+01  1.22405E+01  1.29366E+01  1.36023E+01  1.42348E+01  1.48356E+01  1.54099E+01
   1.59666E+01  1.65185E+01  1.70809E+01  1.76707E+01  1.83048E+01  1.89984E+01  1.97634E+01  2.06069E+01  2.15298E+01  2.25255E+01
   2.35797E+01  2.46705E+01  2.57694E+01  2.68425E+01  2.78517E+01  2.87576E+01  2.95209E+01  3.01055E+01  3.04804E+01  3.06218E+01
   3.05144E+01  3.01523E+01  2.95392E+01  2.86888E+01  2.76233E+01  2.63730E+01  2.49734E+01  2.34646E+01  2.18887E+01  2.02884E+01
   1.87053E+01  1.71787E+01  1.57442E+01  1.44333E+01  1.32728E+01  1.22841E+01  1.14826E+01  1.08768E+01  1.04666E+01  1.02430E+01
   1.01867E+01  1.02682E+01  1.04489E+01  1.06836E+01  1.09240E+01  1.11243E+01  1.12458E+01  1.12613E+01  1.11579E+01  1.09372E+01
   1.06139E+01  1.02124E+01  9.76165E+00  9.29134E+00  8.82728E+00  8.38931E+00  7.99023E+00  7.63629E+00  7.32839E+00  7.06374E+00
   6.83750E+00  6.64439E+00  6.47964E+00  6.33969E+00  6.22220E+00  6.12610E+00  6.05119E+00  5.99815E+00  5.96813E+00  5.96262E+00
   5.98305E+00  6.03069E+00  6.10644E+00  6.21088E+00  6.34409E+00  6.50561E+00  6.69421E+00  6.90792E+00  7.14392E+00  7.39875E+00
   7.66813E+00  7.94707E+00  8.22982E+00  8.51011E+00  8.78128E+00  9.03661E+00  9.26939E+00  9.47323E+00  9.64216E+00  9.77104E+00
   9.85573E+00  9.89337E+00  9.88229E+00  9.82218E+00  9.71400E+00  9.56005E+00  9.36379E+00  9.12971E+00  8.86302E+00  8.56940E+00
   8.25478E+00  7.92521E+00  7.58657E+00  7.24441E+00  6.90369E+00  6.56873E+00  6.24315E+00  5.92996E+00  5.63143E+00  5.34919E+00
   5.08418E+00  4.83682E+00  4.60707E+00  4.39465E+00  4.19893E+00  4.01910E+00  3.85411E+00  3.70289E+00  3.56435E+00  3.43746E+00
   3.32118E+00  3.21453E+00  3.11649E+00  3.02621E+00  2.94292E+00  2.86597E+00  2.79470E+00  2.72852E+00  2.66686E+00  2.60928E+00
   2.55542E+00  2.50495E+00  2.45752E+00  2.41284E+00  2.37059E+00  2.33061E+00  2.29272E+00  2.25676E+00  2.22253E+00  2.18986E+00
   2.15860E+00  2.12871E+00  2.10008E+00  2.07263E+00  2.04623E+00  2.02078E+00  1.99622E+00  1.97255E+00  1.94969E+00  1.92760E+00
   1.90615E+00  1.88533E+00  1.86509E+00  1.84547E+00  1.82639E+00  1.80783E+00  1.78968E+00  1.77196E+00  1.75466E+00  1.73780E+00
   1.72131E+00  1.70516E+00  1.68929E+00  1.67374E+00  1.65850E+00  1.64359E+00  1.62893E+00  1.61449E+00  1.60026E+00  1.58627E+00
   1.57251E+00  1.55898E+00  1.54561E+00  1.53241E+00  1.51934E+00  1.50648E+00  1.49378E+00  1.48124E+00  1.46879E+00  1.45646E+00
   1.44423E+00  1.43216E+00  1.42019E+00  1.40832E+00  1.39649E+00  1.38473E+00  1.37304E+00  1.36146E+00
 NY background values follow
     3.704E+00    3.698E+00    3.692E+00    3.687E+00    3.681E+00    3.675E+00    3.670E+00    3.664E+00    3.658E+00    3.653E+00
     3.647E+00    3.641E+00    3.636E+00    3.630E+00    3.624E+00    3.618E+00    3.613E+00    3.607E+00    3.601E+00    3.596E+00
     3.590E+00    3.584E+00    3.578E+00    3.573E+00    3.567E+00    3.561E+00    3.555E+00    3.550E+00    3.544E+00    3.538E+00
     3.533E+00    3.527E+00    3.521E+00    3.515E+00    3.510E+00    3.504E+00    3.498E+00    3.492E+00    3.487E+00    3.481E+00
     3.475E+00    3.469E+00    3.464E+00    3.458E+00    3.452E+00    3.446E+00    3.441E+00    3.435E+00    3.429E+00    3.423E+00
     3.417E+00    3.412E+00    3.406E+00    3.400E+00    3.394E+00    3.389E+00    3.383E+00    3.377E+00    3.371E+00    3.366E+00
     3.360E+00    3.354E+00    3.348E+00    3.342E+00    3.337E+00    3.331E+00    3.325E+00    3.319E+00    3.313E+00    3.308E+00
     3.302E+00    3.296E+00    3.290E+00    3.284E+00    3.279E+00    3.273E+00    3.267E+00    3.261E+00    3.255E+00    3.250E+00
     3.244E+00    3.238E+00    3.232E+00    3.226E+00    3.220E+00    3.215E+00    3.209E+00    3.203E+00    3.197E+00    3.191E+00
     3.186E+00    3.180E+00    3.174E+00    3.168E+00    3.162E+00    3.156E+00    3.151E+00    3.145E+00    3.139E+00    3.133E+00
     3.127E+00    3.121E+00    3.116E+00    3.110E+00    3.104E+00    3.098E+00    3.092E+00    3.086E+00    3.080E+00    3.075E+00
     3.069E+00    3.063E+00    3.057E+00    3.051E+00    3.045E+00    3.039E+00    3.034E+00    3.028E+00    3.022E+00    3.016E+00
     3.010E+00    3.004E+00    2.998E+00    2.993E+00    2.987E+00    2.981E+00    2.975E+00    2.969E+00    2.963E+00    2.957E+00
     2.951E+00    2.946E+00    2.940E+00    2.934E+00    2.928E+00    2.922E+00    2.916E+00    2.910E+00    2.904E+00    2.898E+00
     2.893E+00    2.887E+00    2.881E+00    2.875E+00    2.869E+00    2.863E+00    2.857E+00    2.851E+00    2.845E+00    2.840E+00
     2.834E+00    2.828E+00    2.822E+00    2.816E+00    2.810E+00    2.804E+00    2.798E+00    2.792E+00    2.786E+00    2.781E+00
     2.775E+00    2.769E+00    2.763E+00    2.757E+00    2.751E+00    2.745E+00    2.739E+00    2.733E+00    2.727E+00    2.721E+00
     2.715E+00    2.710E+00    2.704E+00    2.698E+00    2.692E+00    2.686E+00    2.680E+00    2.674E+00    2.668E+00    2.662E+00
     2.656E+00    2.650E+00    2.644E+00    2.638E+00    2.633E+00    2.627E+00    2.621E+00    2.615E+00    2.609E+00    2.603E+00
     2.597E+00    2.591E+00    2.585E+00    2.579E+00    2.573E+00    2.567E+00    2.561E+00    2.555E+00    2.549E+00    2.543E+00
     2.537E+00    2.532E+00    2.526E+00    2.520E+00    2.514E+00    2.508E+00    2.502E+00    2.496E+00    2.490E+00    2.484E+00
     2.478E+00    2.472E+00    2.466E+00    2.460E+00    2.454E+00    2.448E+00    2.442E+00    2.436E+00    2.430E+00    2.424E+00
     2.418E+00    2.412E+00    2.407E+00    2.401E+00    2.395E+00    2.389E+00    2.383E+00    2.377E+00    2.371E+00    2.365E+00
     2.359E+00    2.353E+00    2.347E+00    2.341E+00    2.335E+00    2.329E+00    2.323E+00    2.317E+00    2.311E+00    2.305E+00
     2.299E+00    2.293E+00    2.287E+00    2.281E+00    2.275E+00    2.269E+00    2.263E+00    2.257E+00    2.251E+00    2.245E+00
     2.239E+00    2.233E+00    2.227E+00    2.221E+00    2.215E+00    2.209E+00    2.203E+00    2.198E+00    2.192E+00    2.186E+00
     2.180E+00    2.174E+00    2.168E+00    2.162E+00    2.156E+00    2.150E+00    2.144E+00    2.138E+00    2.132E+00    2.126E+00
     2.120E+00    2.114E+00    2.108E+00    2.102E+00    2.096E+00    2.090E+00    2.084E+00    2.078E+00    2.072E+00    2.066E+00
     2.060E+00    2.054E+00    2.048E+00    2.042E+00    2.036E+00    2.030E+00    2.024E+00    2.018E+00    2.012E+00    2.006E+00
     2.000E+00    1.994E+00    1.988E+00    1.982E+00    1.976E+00    1.970E+00    1.964E+00    1.958E+00    1.952E+00    1.946E+00
     1.940E+00    1.934E+00    1.928E+00    1.922E+00    1.916E+00    1.910E+00    1.904E+00    1.898E+00    1.892E+00    1.886E+00
     1.880E+00    1.874E+00    1.868E+00    1.862E+00    1.856E+00    1.850E+00    1.844E+00    1.838E+00    1.832E+00    1.826E+00
     1.820E+00    1.814E+00    1.808E+00    1.802E+00    1.796E+00    1.790E+00    1.784E+00    1.778E+00    1.772E+00    1.766E+00
     1.760E+00    1.754E+00    1.748E+00    1.742E+00    1.736E+00    1.730E+00    1.724E+00    1.718E+00    1.712E+00    1.706E+00
     1.700E+00    1.694E+00    1.688E+00    1.682E+00    1.676E+00    1.670E+00    1.664E+00    1.657E+00    1.651E+00    1.645E+00
     1.639E+00    1.633E+00    1.627E+00    1.621E+00    1.615E+00    1.609E+00    1.603E+00    1.597E+00    1.591E+00    1.585E+00
     1.579E+00    1.573E+00    1.567E+00    1.561E+00    1.555E+00    1.549E+00    1.543E+00    1.537E+00    1.531E+00    1.525E+00
     1.519E+00    1.513E+00    1.507E+00    1.501E+00    1.495E+00    1.489E+00    1.483E+00    1.477E+00    1.471E+00    1.465E+00
     1.459E+00    1.453E+00    1.447E+00    1.441E+00    1.435E+00    1.429E+00    1.423E+00    1.417E+00    1.411E+00    1.405E+00
     1.399E+00    1.393E+00    1.387E+00    1.381E+00    1.375E+00    1.369E+00    1.363E+00    1.357E+00    1.351E+00    1.345E+00
     1.339E+00    1.333E+00    1.327E+00    1.321E+00    1.315E+00    1.309E+00    1.303E+00    1.297E+00    1.291E+00    1.285E+00
     1.279E+00    1.273E+00    1.267E+00    1.261E+00    1.255E+00    1.249E+00    1.243E+00    1.237E+00    1.231E+00    1.225E+00
     1.219E+00    1.213E+00    1.207E+00    1.201E+00    1.194E+00    1.188E+00    1.182E+00    1.176E+00    1.170E+00    1.164E+00
     1.158E+00    1.152E+00    1.146E+00    1.140E+00    1.134E+00    1.128E+00    1.122E+00    1.116E+00    1.110E+00    1.104E+00
     1.098E+00    1.092E+00    1.086E+00    1.080E+00    1.074E+00    1.068E+00    1.062E+00    1.056E+00    1.050E+00    1.044E+00
     1.038E+00    1.032E+00    1.026E+00    1.020E+00    1.014E+00    1.008E+00    1.002E+00    9.963E-01    9.903E-01    9.843E-01
     9.783E-01    9.723E-01    9.663E-01    9.603E-01    9.544E-01    9.484E-01    9.424E-01    9.364E-01    9.304E-01    9.244E-01
     9.184E-01    9.124E-01    9.064E-01    9.004E-01    8.944E-01    8.884E-01    8.824E-01    8.764E-01    8.704E-01    8.644E-01
     8.585E-01    8.525E-01    8.465E-01    8.405E-01    8.345E-01    8.285E-01    8.225E-01    8.165E-01    8.105E-01    8.046E-01
     7.986E-01    7.926E-01    7.866E-01    7.806E-01    7.746E-01    7.687E-01    7.627E-01    7.567E-01
 Asp      Conc. = 8.17E+01
