 LCModel (Version 6.3-1L) Copyright: S.W. Provencher.          Ref.: Magn. Reson. Med. 30:672-679 (1993).                
 Slice#3 Row#14 Col#2  K_02_press_1_raw_act
 36 lines in following concentration table = NCONC+1
    Conc.  %SD /Cr+PCr  Metabolite                                         
 2.36E+03  19%   0.000 Ala                                                 
    2.327 107%   0.000 Asp                                                 
    0.000 999%   0.000 Cr                                                  
    0.000 999%   0.000 PCr                                                 
    1.364 109%   0.000 GABA                                                
    1.375 108%   0.000 Glc                                                 
    0.000 999%   0.000 Gln                                                 
    0.000 999%   0.000 Glu                                                 
   15.361  87%   0.000 GPC                                                 
    0.000 999%   0.000 PCh                                                 
   58.938  98%   0.000 GSH                                                 
    0.000 999%   0.000 Ins                                                 
 2.15E+03  28%   0.000 Lac                                                 
    0.000 999%   0.000 NAA                                                 
    0.000 999%   0.000 NAAG                                                
    0.464 107%   0.000 Scyllo                                              
    2.285 108%   0.000 Tau                                                 
    0.000 999%   0.000 -CrCH2                                              
   15.361  87%   0.000 GPC+PCh                                             
    0.000 999%   0.000 NAA+NAAG                                            
    0.000 999%   0.000 Cr+PCr                                              
    0.000 999%   0.000 Glu+Gln                                             
 3.50E+03  29%   0.000 Lip13a                                              
    0.000 999%   0.000 Lip13b                                              
  941.904  29%   0.000 Lip09                                               
  459.745  21%   0.000 MM09                                                
  519.827  30%   0.000 Lip20                                               
  476.400  30%   0.000-MM20                                                
  137.134  25%   0.000 MM12                                                
  598.728  16%   0.000+MM14                                                
  284.503  22%   0.000 MM17                                                
 3.50E+03  29%   0.000 Lip13a+Lip13b                                       
 4.24E+03  24%   0.000 MM14+Lip13a+Lip13b+MM12                             
 1.40E+03  18%   0.000 MM09+Lip09                                          
  996.228  17%   0.000 MM20+Lip20                                          
   6 lines in following misc. output table
  FWHM = 0.168 ppm    S/N =   5                                            
  Data shift = 0.084 ppm                                                   
  Ph:  80 deg      48.1 deg/ppm                                            
  alphaB,S = 1.7E+00,   7.2E+02                                            
    7 spline knots.   Ns = 9(2)                                            
  (11) 2 infls.   (11) 1 extrs.                                            
  498 points on ppm-axis = NY
      4.000000     3.992357     3.984714     3.977070     3.969427     3.961784     3.954141     3.946497     3.938854     3.931211
      3.923568     3.915925     3.908281     3.900638     3.892995     3.885352     3.877708     3.870065     3.862422     3.854779
      3.847136     3.839492     3.831849     3.824206     3.816563     3.808919     3.801276     3.793633     3.785990     3.778347
      3.770703     3.763060     3.755417     3.747774     3.740130     3.732487     3.724844     3.717201     3.709558     3.701914
      3.694271     3.686628     3.678985     3.671341     3.663698     3.656055     3.648412     3.640769     3.633125     3.625482
      3.617839     3.610196     3.602552     3.594909     3.587266     3.579623     3.571980     3.564336     3.556693     3.549050
      3.541407     3.533763     3.526120     3.518477     3.510834     3.503191     3.495547     3.487904     3.480261     3.472618
      3.464974     3.457331     3.449688     3.442045     3.434402     3.426758     3.419115     3.411472     3.403829     3.396185
      3.388542     3.380899     3.373256     3.365613     3.357969     3.350326     3.342683     3.335040     3.327396     3.319753
      3.312110     3.304467     3.296824     3.289180     3.281537     3.273894     3.266251     3.258607     3.250964     3.243321
      3.235678     3.228034     3.220391     3.212748     3.205105     3.197462     3.189818     3.182175     3.174532     3.166889
      3.159245     3.151602     3.143959     3.136316     3.128673     3.121029     3.113386     3.105743     3.098100     3.090456
      3.082813     3.075170     3.067527     3.059884     3.052240     3.044597     3.036954     3.029311     3.021667     3.014024
      3.006381     2.998738     2.991095     2.983451     2.975808     2.968165     2.960522     2.952878     2.945235     2.937592
      2.929949     2.922306     2.914662     2.907019     2.899376     2.891733     2.884089     2.876446     2.868803     2.861160
      2.853517     2.845873     2.838230     2.830587     2.822944     2.815300     2.807657     2.800014     2.792371     2.784728
      2.777084     2.769441     2.761798     2.754155     2.746511     2.738868     2.731225     2.723582     2.715939     2.708295
      2.700652     2.693009     2.685366     2.677722     2.670079     2.662436     2.654793     2.647150     2.639506     2.631863
      2.624220     2.616577     2.608933     2.601290     2.593647     2.586004     2.578361     2.570717     2.563074     2.555431
      2.547788     2.540144     2.532501     2.524858     2.517215     2.509572     2.501928     2.494285     2.486642     2.478999
      2.471355     2.463712     2.456069     2.448426     2.440783     2.433139     2.425496     2.417853     2.410210     2.402566
      2.394923     2.387280     2.379637     2.371994     2.364350     2.356707     2.349064     2.341421     2.333777     2.326134
      2.318491     2.310848     2.303205     2.295561     2.287918     2.280275     2.272632     2.264988     2.257345     2.249702
      2.242059     2.234416     2.226772     2.219129     2.211486     2.203843     2.196199     2.188556     2.180913     2.173270
      2.165627     2.157983     2.150340     2.142697     2.135054     2.127410     2.119767     2.112124     2.104481     2.096838
      2.089194     2.081551     2.073908     2.066265     2.058621     2.050978     2.043335     2.035692     2.028049     2.020405
      2.012762     2.005119     1.997476     1.989833     1.982190     1.974546     1.966903     1.959260     1.951617     1.943974
      1.936331     1.928688     1.921045     1.913402     1.905759     1.898115     1.890472     1.882829     1.875186     1.867543
      1.859900     1.852257     1.844614     1.836971     1.829327     1.821684     1.814041     1.806398     1.798755     1.791112
      1.783469     1.775826     1.768183     1.760540     1.752896     1.745253     1.737610     1.729967     1.722324     1.714681
      1.707038     1.699395     1.691752     1.684108     1.676465     1.668822     1.661179     1.653536     1.645893     1.638250
      1.630607     1.622964     1.615321     1.607677     1.600034     1.592391     1.584748     1.577105     1.569462     1.561819
      1.554176     1.546533     1.538890     1.531246     1.523603     1.515960     1.508317     1.500674     1.493031     1.485388
      1.477745     1.470102     1.462458     1.454815     1.447172     1.439529     1.431886     1.424243     1.416600     1.408957
      1.401314     1.393671     1.386027     1.378384     1.370741     1.363098     1.355455     1.347812     1.340169     1.332526
      1.324883     1.317240     1.309596     1.301953     1.294310     1.286667     1.279024     1.271381     1.263738     1.256095
      1.248452     1.240808     1.233165     1.225522     1.217879     1.210236     1.202593     1.194950     1.187307     1.179664
      1.172021     1.164377     1.156734     1.149091     1.141448     1.133805     1.126162     1.118519     1.110876     1.103233
      1.095590     1.087946     1.080303     1.072660     1.065017     1.057374     1.049731     1.042088     1.034445     1.026802
      1.019158     1.011515     1.003872     0.996229     0.988586     0.980943     0.973300     0.965657     0.958014     0.950371
      0.942727     0.935084     0.927441     0.919798     0.912155     0.904512     0.896869     0.889226     0.881583     0.873940
      0.866296     0.858653     0.851010     0.843367     0.835724     0.828081     0.820438     0.812795     0.805152     0.797508
      0.789865     0.782222     0.774579     0.766936     0.759293     0.751650     0.744007     0.736364     0.728721     0.721077
      0.713434     0.705791     0.698148     0.690505     0.682862     0.675219     0.667576     0.659933     0.652290     0.644646
      0.637003     0.629360     0.621717     0.614074     0.606431     0.598788     0.591145     0.583502     0.575858     0.568215
      0.560572     0.552929     0.545286     0.537643     0.530000     0.522357     0.514714     0.507071     0.499427     0.491784
      0.484141     0.476498     0.468855     0.461212     0.453569     0.445925     0.438282     0.430639     0.422996     0.415353
      0.407710     0.400067     0.392424     0.384780     0.377137     0.369494     0.361851     0.354208     0.346565     0.338922
      0.331278     0.323635     0.315992     0.308349     0.300706     0.293063     0.285420     0.277777     0.270133     0.262490
      0.254847     0.247204     0.239561     0.231918     0.224275     0.216631     0.208988     0.201345
 NY phased data points follow
  -1.24048E+01 -1.25160E+01 -1.25763E+01 -1.41323E+01 -1.32757E+01 -1.51309E+01 -1.47637E+01 -1.57966E+01 -1.70063E+01 -1.46851E+01
  -1.48094E+01 -1.65537E+01 -1.63539E+01 -1.66647E+01 -1.67515E+01 -1.66059E+01 -1.72695E+01 -1.59634E+01 -1.68216E+01 -1.53701E+01
  -1.66993E+01 -1.65312E+01 -1.74591E+01 -1.67338E+01 -1.60435E+01 -1.66908E+01 -1.75420E+01 -1.78439E+01 -1.60891E+01 -1.81571E+01
  -1.80335E+01 -1.66003E+01 -1.74099E+01 -1.78644E+01 -1.64129E+01 -1.67164E+01 -1.86925E+01 -1.73661E+01 -1.71777E+01 -1.65642E+01
  -1.94336E+01 -1.73584E+01 -1.91070E+01 -1.90654E+01 -1.79491E+01 -1.82130E+01 -1.71510E+01 -1.65492E+01 -1.70652E+01 -1.86396E+01
  -1.73803E+01 -1.81671E+01 -1.69058E+01 -1.84785E+01 -1.84333E+01 -1.72155E+01 -1.73026E+01 -1.81207E+01 -1.74854E+01 -1.72862E+01
  -1.89381E+01 -1.88120E+01 -1.64792E+01 -1.63538E+01 -1.73864E+01 -1.77477E+01 -1.72669E+01 -1.65693E+01 -1.55102E+01 -1.85716E+01
  -1.58716E+01 -1.59106E+01 -1.64878E+01 -1.73820E+01 -1.75221E+01 -1.62795E+01 -1.76589E+01 -1.73901E+01 -1.76592E+01 -1.77053E+01
  -1.59905E+01 -1.59374E+01 -1.44679E+01 -1.61404E+01 -1.59517E+01 -1.49471E+01 -1.59306E+01 -1.43379E+01 -1.58612E+01 -1.49331E+01
  -1.42360E+01 -1.41718E+01 -1.33455E+01 -1.39312E+01 -1.32483E+01 -1.49301E+01 -1.33223E+01 -1.60685E+01 -1.54931E+01 -1.28383E+01
  -1.52901E+01 -1.51243E+01 -1.32041E+01 -1.35523E+01 -1.39645E+01 -1.27115E+01 -1.49432E+01 -1.52925E+01 -1.26214E+01 -1.40093E+01
  -1.48893E+01 -1.49115E+01 -1.40265E+01 -1.38795E+01 -1.24369E+01 -1.17650E+01 -1.36469E+01 -1.28950E+01 -1.28015E+01 -1.42101E+01
  -1.51684E+01 -1.41954E+01 -1.33768E+01 -1.40527E+01 -1.33040E+01 -1.29701E+01 -1.45711E+01 -1.28243E+01 -1.34653E+01 -1.36025E+01
  -1.39007E+01 -1.31897E+01 -1.23457E+01 -1.26994E+01 -1.36229E+01 -1.38798E+01 -1.32898E+01 -1.38754E+01 -1.20062E+01 -1.59638E+01
  -1.36912E+01 -1.29266E+01 -1.26358E+01 -1.26926E+01 -1.19203E+01 -1.26802E+01 -1.28149E+01 -1.37629E+01 -1.24576E+01 -1.37335E+01
  -1.17320E+01 -1.06046E+01 -1.13080E+01 -1.24990E+01 -1.29982E+01 -1.20970E+01 -1.25325E+01 -1.24818E+01 -1.20436E+01 -1.20737E+01
  -1.43255E+01 -1.11165E+01 -1.20130E+01 -1.42225E+01 -1.30727E+01 -1.44213E+01 -1.18283E+01 -1.24199E+01 -1.24135E+01 -1.21899E+01
  -1.27338E+01 -1.41476E+01 -1.32797E+01 -1.01247E+01 -1.33906E+01 -1.19859E+01 -1.35224E+01 -1.13034E+01 -1.04642E+01 -1.17678E+01
  -1.08307E+01 -1.24977E+01 -1.16153E+01 -1.25102E+01 -1.08068E+01 -1.18234E+01 -1.23242E+01 -1.19602E+01 -1.05898E+01 -1.15232E+01
  -1.05145E+01 -1.05119E+01 -1.01890E+01 -1.12258E+01 -1.23167E+01 -1.13520E+01 -1.08602E+01 -1.08210E+01 -9.40296E+00 -1.03811E+01
  -1.02021E+01 -1.03033E+01 -1.12241E+01 -1.15821E+01 -1.10098E+01 -9.08386E+00 -9.60020E+00 -1.12834E+01 -1.05820E+01 -1.27477E+01
  -1.05124E+01 -1.14892E+01 -1.10443E+01 -1.02999E+01 -8.68744E+00 -9.92826E+00 -1.07697E+01 -1.09340E+01 -9.50648E+00 -1.02140E+01
  -1.18204E+01 -1.10519E+01 -9.82250E+00 -9.98958E+00 -1.04078E+01 -9.03827E+00 -9.01403E+00 -1.06647E+01 -1.08355E+01 -1.08117E+01
  -1.20648E+01 -1.04126E+01 -1.16982E+01 -1.11881E+01 -1.38742E+01 -1.02247E+01 -1.29730E+01 -1.29370E+01 -1.29706E+01 -1.09880E+01
  -1.25721E+01 -1.16469E+01 -1.22912E+01 -1.15856E+01 -1.17342E+01 -1.09440E+01 -1.08292E+01 -1.14461E+01 -1.16843E+01 -1.19465E+01
  -1.33417E+01 -1.46160E+01 -1.40687E+01 -1.35923E+01 -1.33002E+01 -1.25837E+01 -1.32805E+01 -1.41766E+01 -1.41473E+01 -1.51695E+01
  -1.54465E+01 -1.29640E+01 -1.37986E+01 -1.38918E+01 -1.39750E+01 -1.56074E+01 -1.30577E+01 -1.50435E+01 -1.45256E+01 -1.52001E+01
  -1.53574E+01 -1.49700E+01 -1.40368E+01 -1.57146E+01 -1.54447E+01 -1.57112E+01 -1.39116E+01 -1.43269E+01 -1.42839E+01 -1.61645E+01
  -1.46187E+01 -1.71385E+01 -1.50809E+01 -1.42575E+01 -1.48710E+01 -1.61254E+01 -1.53126E+01 -1.63726E+01 -1.59540E+01 -1.48056E+01
  -1.47160E+01 -1.41211E+01 -1.54416E+01 -1.51032E+01 -1.46414E+01 -1.30177E+01 -1.57075E+01 -1.25436E+01 -1.32572E+01 -1.31954E+01
  -1.03487E+01 -9.43999E+00 -1.13782E+01 -8.77319E+00 -8.55876E+00 -7.95767E+00 -7.60879E+00 -7.49974E+00 -5.67753E+00 -5.78631E+00
  -6.41356E+00 -5.57144E+00 -6.47437E+00 -4.44645E+00 -3.91898E+00 -3.73745E+00 -4.48796E+00 -5.68180E+00 -2.95412E+00 -4.03427E+00
  -3.35008E+00 -1.61496E+00 -2.95110E+00 -1.44781E+00 -1.72890E+00 -1.68092E+00 -1.80006E+00 -4.89526E-01 -8.39956E-01 -5.15991E-01
  -8.58919E-01 -6.29869E-01 -2.00621E+00  2.46697E-01  7.24512E-01  2.29607E+00  2.83876E-01  1.37058E+00  3.18196E+00  1.91910E+00
   1.89806E+00  3.34001E+00  2.58147E+00  5.30288E-01  9.08646E-01  5.01379E-02  1.55528E+00  1.37095E+00  1.53576E+00 -3.80568E-02
   9.71639E-03  3.21487E-01 -2.55021E-01 -1.17921E+00 -3.80050E-01 -3.78976E-02  1.74942E+00  4.31897E-02 -8.09601E-01  1.71545E+00
   6.64330E-01 -1.26889E+00  4.64842E-01 -2.93039E-01 -3.19202E-01 -3.24025E-01  6.09906E-01 -1.95197E+00  5.21129E-01 -1.56654E+00
   5.10198E-01 -4.66168E-01 -7.35985E-01  1.81724E+00 -2.99570E-01 -2.06164E+00 -2.08191E+00 -1.80745E+00  3.25920E-01  5.38012E-01
  -1.93311E+00  6.35564E-01  4.85862E-01  6.77699E-01 -3.25538E-01 -1.97884E+00 -8.37152E-01  3.02756E-01  1.00659E+00 -1.42273E-01
   8.46384E-02 -3.02121E-01 -1.13057E-01  1.22160E+00  7.47854E-01 -4.20913E-01 -4.14293E-01 -1.08130E-01  1.55654E-01 -1.23547E-01
  -1.20850E+00 -5.72266E-01  7.98391E-01 -5.24803E-01  1.41464E-01 -9.67859E-01 -1.23864E+00  1.46756E+00  2.30506E-01 -4.08031E-01
  -1.17752E+00  8.00591E-01 -1.34806E-01  3.72502E-01  1.29142E+00  7.88711E-01  6.69118E-01 -9.84120E-02 -8.61487E-01  4.33839E-01
  -7.41874E-01 -5.62976E-01  2.34484E+00  1.38277E+00 -6.98588E-01 -1.65840E+00  1.40561E+00  1.33932E+00  1.54429E+00  6.69079E-01
   3.04432E-01  9.41585E-01 -1.34381E+00  1.63512E+00  3.40696E-01  3.41778E-01  5.74820E-01  1.52939E+00  1.87676E+00  1.22888E+00
   8.04575E-01  3.92262E-01  2.04578E+00  1.81434E+00  4.01289E-01  9.90363E-01 -1.91278E-01  3.72184E-01  1.40889E+00  1.42688E+00
   2.11077E+00  1.62047E+00  1.48183E+00  4.71825E-01  1.66011E+00  3.70001E-01 -1.05576E-01  5.41603E-01  7.80915E-01  2.46746E+00
   3.02638E-01  1.60675E+00  1.59355E+00  1.95253E+00  2.96251E-01  1.20990E+00  6.58715E-01  2.03332E+00  2.00344E+00  1.39006E+00
  -3.57295E-01  2.66518E+00  1.27434E+00  1.23123E+00  3.07389E-01  3.40175E+00  1.38966E+00  3.49082E+00  1.42606E+00  2.02279E+00
   3.51296E+00  1.69870E+00  5.29087E-02  2.61285E+00  8.71308E-01  2.03053E+00  2.22748E+00  1.96569E+00  2.65214E+00  2.32182E+00
   1.55968E+00  1.17440E+00  1.18627E+00  2.01478E+00  2.64403E+00  1.34236E+00  1.87617E+00  2.02873E+00
 NY points of the fit to the data follow
  -1.48026E+01 -1.52963E+01 -1.50862E+01 -1.54246E+01 -1.52765E+01 -1.55248E+01 -1.54700E+01 -1.55704E+01 -1.56874E+01 -1.57015E+01
  -1.59791E+01 -1.59033E+01 -1.62258E+01 -1.60788E+01 -1.65187E+01 -1.62289E+01 -1.67083E+01 -1.63075E+01 -1.68221E+01 -1.63757E+01
  -1.68917E+01 -1.64181E+01 -1.69668E+01 -1.65342E+01 -1.70880E+01 -1.67132E+01 -1.72291E+01 -1.69161E+01 -1.73443E+01 -1.70840E+01
  -1.73833E+01 -1.71716E+01 -1.73396E+01 -1.71926E+01 -1.72594E+01 -1.72107E+01 -1.72196E+01 -1.72898E+01 -1.72666E+01 -1.74345E+01
  -1.73841E+01 -1.75749E+01 -1.74532E+01 -1.76220E+01 -1.74293E+01 -1.75577E+01 -1.73344E+01 -1.74309E+01 -1.72833E+01 -1.74114E+01
  -1.73191E+01 -1.74503E+01 -1.73872E+01 -1.74950E+01 -1.74470E+01 -1.74614E+01 -1.73733E+01 -1.73450E+01 -1.72538E+01 -1.72033E+01
  -1.71260E+01 -1.70722E+01 -1.70284E+01 -1.69877E+01 -1.69466E+01 -1.69042E+01 -1.68617E+01 -1.68162E+01 -1.67705E+01 -1.67219E+01
  -1.66733E+01 -1.66217E+01 -1.65696E+01 -1.65154E+01 -1.64602E+01 -1.64039E+01 -1.63462E+01 -1.62880E+01 -1.62279E+01 -1.61680E+01
  -1.61056E+01 -1.60435E+01 -1.59786E+01 -1.59122E+01 -1.58331E+01 -1.57414E+01 -1.56599E+01 -1.55466E+01 -1.54715E+01 -1.53395E+01
  -1.52748E+01 -1.51253E+01 -1.50732E+01 -1.49072E+01 -1.48690E+01 -1.46877E+01 -1.46654E+01 -1.44728E+01 -1.44679E+01 -1.42694E+01
  -1.42824E+01 -1.40857E+01 -1.41163E+01 -1.39295E+01 -1.39742E+01 -1.38050E+01 -1.38563E+01 -1.37077E+01 -1.37564E+01 -1.36266E+01
  -1.36654E+01 -1.35508E+01 -1.35763E+01 -1.34742E+01 -1.34850E+01 -1.33922E+01 -1.33864E+01 -1.33072E+01 -1.32881E+01 -1.32236E+01
  -1.31923E+01 -1.31367E+01 -1.30896E+01 -1.30343E+01 -1.29677E+01 -1.29063E+01 -1.28359E+01 -1.27826E+01 -1.27115E+01 -1.26685E+01
  -1.25977E+01 -1.25652E+01 -1.24953E+01 -1.24733E+01 -1.24049E+01 -1.23925E+01 -1.23263E+01 -1.23218E+01 -1.22573E+01 -1.22582E+01
  -1.21961E+01 -1.22012E+01 -1.21439E+01 -1.21529E+01 -1.21030E+01 -1.21150E+01 -1.20741E+01 -1.20871E+01 -1.20553E+01 -1.20676E+01
  -1.20436E+01 -1.20544E+01 -1.20371E+01 -1.20459E+01 -1.20346E+01 -1.20417E+01 -1.20371E+01 -1.20476E+01 -1.20521E+01 -1.20648E+01
  -1.20763E+01 -1.20891E+01 -1.21034E+01 -1.21166E+01 -1.21323E+01 -1.21481E+01 -1.21659E+01 -1.21860E+01 -1.22058E+01 -1.22298E+01
  -1.22512E+01 -1.22773E+01 -1.22974E+01 -1.23231E+01 -1.23403E+01 -1.23662E+01 -1.23819E+01 -1.24088E+01 -1.24241E+01 -1.24543E+01
  -1.24715E+01 -1.24998E+01 -1.25168E+01 -1.25409E+01 -1.25575E+01 -1.25765E+01 -1.25936E+01 -1.26073E+01 -1.26256E+01 -1.26342E+01
  -1.26543E+01 -1.26576E+01 -1.26795E+01 -1.26780E+01 -1.27012E+01 -1.26946E+01 -1.27179E+01 -1.27064E+01 -1.27274E+01 -1.27110E+01
  -1.27279E+01 -1.27082E+01 -1.27209E+01 -1.27003E+01 -1.27091E+01 -1.26892E+01 -1.26939E+01 -1.26752E+01 -1.26751E+01 -1.26560E+01
  -1.26499E+01 -1.26295E+01 -1.26169E+01 -1.25976E+01 -1.25823E+01 -1.25647E+01 -1.25482E+01 -1.25311E+01 -1.25128E+01 -1.24928E+01
  -1.24719E+01 -1.24498E+01 -1.24276E+01 -1.24067E+01 -1.23846E+01 -1.23654E+01 -1.23433E+01 -1.23229E+01 -1.22964E+01 -1.22732E+01
  -1.22407E+01 -1.22145E+01 -1.21756E+01 -1.21468E+01 -1.21024E+01 -1.20722E+01 -1.20237E+01 -1.19930E+01 -1.19418E+01 -1.19116E+01
  -1.18601E+01 -1.18310E+01 -1.17820E+01 -1.17552E+01 -1.17118E+01 -1.16905E+01 -1.16573E+01 -1.16461E+01 -1.16282E+01 -1.16315E+01
  -1.16328E+01 -1.16527E+01 -1.16746E+01 -1.17114E+01 -1.17525E+01 -1.18017E+01 -1.18574E+01 -1.19166E+01 -1.19836E+01 -1.20512E+01
  -1.21273E+01 -1.22049E+01 -1.22892E+01 -1.23727E+01 -1.24606E+01 -1.25457E+01 -1.26330E+01 -1.27152E+01 -1.27973E+01 -1.28751E+01
  -1.29513E+01 -1.30235E+01 -1.30928E+01 -1.31583E+01 -1.32200E+01 -1.32775E+01 -1.33302E+01 -1.33781E+01 -1.34207E+01 -1.34580E+01
  -1.34896E+01 -1.35152E+01 -1.35346E+01 -1.35473E+01 -1.35531E+01 -1.35512E+01 -1.35410E+01 -1.35217E+01 -1.34924E+01 -1.34516E+01
  -1.33981E+01 -1.33301E+01 -1.32457E+01 -1.31430E+01 -1.30198E+01 -1.28740E+01 -1.27035E+01 -1.25064E+01 -1.22811E+01 -1.20261E+01
  -1.17405E+01 -1.14233E+01 -1.10734E+01 -1.06894E+01 -1.02683E+01 -9.80378E+00 -9.28239E+00 -8.67239E+00 -7.88905E+00 -6.92327E+00
  -6.32707E+00 -5.34819E+00 -5.11316E+00 -4.24566E+00 -4.44212E+00 -3.78271E+00 -4.47772E+00 -3.55870E+00 -4.36489E+00 -3.18513E+00
  -4.08124E+00 -2.76280E+00 -3.76620E+00 -2.39502E+00 -3.47779E+00 -2.10476E+00 -3.14293E+00 -1.65862E+00 -2.22795E+00 -9.22374E-01
  -1.31456E+00 -2.69341E-01 -5.08233E-01  2.66054E-01  8.40529E-02  5.07555E-01  7.79174E-01  9.67593E-01  1.51095E+00  1.34442E+00
   1.93980E+00  1.43143E+00  2.00845E+00  1.28273E+00  1.86786E+00  1.08046E+00  1.72381E+00  1.00343E+00  1.65380E+00  1.07876E+00
   1.47004E+00  8.43827E-01  1.13452E+00  5.87347E-01  8.09931E-01  3.99442E-01  5.07756E-01  4.07268E-01  4.96013E-01  4.37870E-01
   3.89829E-01  3.26785E-01  2.19244E-01  1.96497E-01  1.32069E-01  1.84596E-01  1.97456E-01  2.91360E-01  3.54992E-01  2.60306E-01
  -1.72958E-02 -2.41973E-01 -6.99081E-01 -9.79081E-01 -1.42852E+00 -1.65522E+00 -1.74679E+00 -1.75743E+00 -1.70896E+00 -1.61392E+00
  -1.48162E+00 -1.32034E+00 -1.13808E+00 -9.43012E-01 -7.43398E-01 -5.47448E-01 -3.62959E-01 -1.97002E-01 -5.55194E-02  5.69377E-02
   1.37483E-01  1.85033E-01  2.00382E-01  1.86085E-01  1.46264E-01  8.62470E-02  1.22045E-02 -6.92722E-02 -1.51599E-01 -2.28600E-01
  -2.94875E-01 -3.46067E-01 -3.79046E-01 -3.91964E-01 -3.84260E-01 -3.56563E-01 -3.10572E-01 -2.48840E-01 -1.74566E-01 -9.13439E-02
  -2.94565E-03  8.68850E-02  1.74587E-01  2.56950E-01  3.31221E-01  3.95195E-01  4.47245E-01  4.86338E-01  5.12000E-01  5.24306E-01
   5.23807E-01  5.11487E-01  4.88656E-01  4.56877E-01  4.17871E-01  3.73462E-01  3.25485E-01  2.75746E-01  2.25936E-01  1.77603E-01
   1.32113E-01  9.06456E-02  5.41769E-02  2.34824E-02 -8.70540E-04 -1.85014E-02 -2.92019E-02 -3.29042E-02 -2.96674E-02 -1.96549E-02
  -3.12560E-03  1.95975E-02  4.81428E-02  8.21134E-02  1.21094E-01  1.64656E-01  2.12365E-01  2.63797E-01  3.18541E-01  3.76208E-01
   4.36425E-01  4.98833E-01  5.63093E-01  6.28886E-01  6.95917E-01  7.63918E-01  8.32627E-01  9.01802E-01  9.71209E-01  1.04064E+00
   1.10991E+00  1.17882E+00  1.24721E+00  1.31491E+00  1.38176E+00  1.44763E+00  1.51237E+00  1.57586E+00  1.63797E+00  1.69859E+00
   1.75760E+00  1.81490E+00  1.87039E+00  1.92397E+00  1.97555E+00  2.02503E+00  2.07232E+00  2.11735E+00  2.16002E+00  2.20028E+00
   2.23802E+00  2.27318E+00  2.30568E+00  2.33547E+00  2.36246E+00  2.38658E+00  2.40778E+00  2.42598E+00  2.44113E+00  2.45317E+00
   2.46202E+00  2.46765E+00  2.46998E+00  2.46897E+00  2.46457E+00  2.45674E+00  2.44544E+00  2.43063E+00
 NY background values follow
    -1.514E+01   -1.527E+01   -1.541E+01   -1.554E+01   -1.566E+01   -1.578E+01   -1.590E+01   -1.601E+01   -1.612E+01   -1.622E+01
    -1.632E+01   -1.642E+01   -1.651E+01   -1.660E+01   -1.669E+01   -1.677E+01   -1.685E+01   -1.692E+01   -1.699E+01   -1.706E+01
    -1.713E+01   -1.719E+01   -1.724E+01   -1.730E+01   -1.735E+01   -1.740E+01   -1.744E+01   -1.748E+01   -1.752E+01   -1.755E+01
    -1.759E+01   -1.762E+01   -1.764E+01   -1.767E+01   -1.769E+01   -1.770E+01   -1.772E+01   -1.773E+01   -1.774E+01   -1.775E+01
    -1.775E+01   -1.776E+01   -1.776E+01   -1.775E+01   -1.775E+01   -1.774E+01   -1.773E+01   -1.772E+01   -1.771E+01   -1.769E+01
    -1.767E+01   -1.765E+01   -1.763E+01   -1.761E+01   -1.758E+01   -1.755E+01   -1.752E+01   -1.749E+01   -1.746E+01   -1.742E+01
    -1.739E+01   -1.735E+01   -1.731E+01   -1.727E+01   -1.723E+01   -1.718E+01   -1.714E+01   -1.709E+01   -1.705E+01   -1.700E+01
    -1.695E+01   -1.690E+01   -1.685E+01   -1.679E+01   -1.674E+01   -1.668E+01   -1.663E+01   -1.657E+01   -1.651E+01   -1.646E+01
    -1.640E+01   -1.634E+01   -1.628E+01   -1.622E+01   -1.616E+01   -1.610E+01   -1.603E+01   -1.597E+01   -1.591E+01   -1.585E+01
    -1.578E+01   -1.572E+01   -1.566E+01   -1.559E+01   -1.553E+01   -1.547E+01   -1.540E+01   -1.534E+01   -1.528E+01   -1.521E+01
    -1.515E+01   -1.509E+01   -1.503E+01   -1.497E+01   -1.490E+01   -1.484E+01   -1.478E+01   -1.472E+01   -1.466E+01   -1.461E+01
    -1.455E+01   -1.449E+01   -1.444E+01   -1.438E+01   -1.433E+01   -1.427E+01   -1.422E+01   -1.417E+01   -1.412E+01   -1.407E+01
    -1.402E+01   -1.397E+01   -1.393E+01   -1.388E+01   -1.384E+01   -1.380E+01   -1.376E+01   -1.372E+01   -1.368E+01   -1.364E+01
    -1.361E+01   -1.357E+01   -1.354E+01   -1.351E+01   -1.348E+01   -1.345E+01   -1.343E+01   -1.340E+01   -1.338E+01   -1.335E+01
    -1.333E+01   -1.331E+01   -1.329E+01   -1.327E+01   -1.325E+01   -1.324E+01   -1.322E+01   -1.321E+01   -1.319E+01   -1.318E+01
    -1.317E+01   -1.316E+01   -1.315E+01   -1.314E+01   -1.314E+01   -1.313E+01   -1.312E+01   -1.312E+01   -1.312E+01   -1.312E+01
    -1.311E+01   -1.311E+01   -1.311E+01   -1.312E+01   -1.312E+01   -1.312E+01   -1.313E+01   -1.313E+01   -1.314E+01   -1.314E+01
    -1.315E+01   -1.316E+01   -1.317E+01   -1.318E+01   -1.319E+01   -1.320E+01   -1.321E+01   -1.322E+01   -1.324E+01   -1.325E+01
    -1.327E+01   -1.328E+01   -1.330E+01   -1.331E+01   -1.333E+01   -1.335E+01   -1.337E+01   -1.339E+01   -1.341E+01   -1.343E+01
    -1.345E+01   -1.347E+01   -1.349E+01   -1.351E+01   -1.353E+01   -1.356E+01   -1.358E+01   -1.360E+01   -1.363E+01   -1.365E+01
    -1.368E+01   -1.370E+01   -1.373E+01   -1.376E+01   -1.378E+01   -1.381E+01   -1.384E+01   -1.386E+01   -1.389E+01   -1.392E+01
    -1.395E+01   -1.398E+01   -1.401E+01   -1.403E+01   -1.406E+01   -1.409E+01   -1.412E+01   -1.415E+01   -1.418E+01   -1.421E+01
    -1.424E+01   -1.427E+01   -1.430E+01   -1.433E+01   -1.436E+01   -1.439E+01   -1.442E+01   -1.445E+01   -1.449E+01   -1.452E+01
    -1.455E+01   -1.458E+01   -1.461E+01   -1.464E+01   -1.467E+01   -1.470E+01   -1.473E+01   -1.476E+01   -1.479E+01   -1.482E+01
    -1.485E+01   -1.488E+01   -1.491E+01   -1.494E+01   -1.497E+01   -1.500E+01   -1.502E+01   -1.505E+01   -1.508E+01   -1.511E+01
    -1.514E+01   -1.516E+01   -1.519E+01   -1.522E+01   -1.524E+01   -1.527E+01   -1.529E+01   -1.532E+01   -1.534E+01   -1.537E+01
    -1.539E+01   -1.542E+01   -1.544E+01   -1.546E+01   -1.548E+01   -1.551E+01   -1.553E+01   -1.555E+01   -1.557E+01   -1.559E+01
    -1.561E+01   -1.563E+01   -1.564E+01   -1.566E+01   -1.568E+01   -1.569E+01   -1.571E+01   -1.572E+01   -1.574E+01   -1.575E+01
    -1.576E+01   -1.578E+01   -1.579E+01   -1.580E+01   -1.581E+01   -1.582E+01   -1.583E+01   -1.583E+01   -1.584E+01   -1.585E+01
    -1.585E+01   -1.586E+01   -1.586E+01   -1.586E+01   -1.586E+01   -1.586E+01   -1.586E+01   -1.586E+01   -1.586E+01   -1.586E+01
    -1.585E+01   -1.585E+01   -1.584E+01   -1.584E+01   -1.583E+01   -1.582E+01   -1.581E+01   -1.580E+01   -1.578E+01   -1.577E+01
    -1.576E+01   -1.574E+01   -1.573E+01   -1.571E+01   -1.569E+01   -1.567E+01   -1.565E+01   -1.562E+01   -1.560E+01   -1.558E+01
    -1.555E+01   -1.552E+01   -1.549E+01   -1.546E+01   -1.543E+01   -1.540E+01   -1.537E+01   -1.533E+01   -1.529E+01   -1.526E+01
    -1.522E+01   -1.518E+01   -1.513E+01   -1.509E+01   -1.505E+01   -1.500E+01   -1.495E+01   -1.490E+01   -1.485E+01   -1.480E+01
    -1.474E+01   -1.469E+01   -1.463E+01   -1.457E+01   -1.451E+01   -1.445E+01   -1.439E+01   -1.432E+01   -1.426E+01   -1.419E+01
    -1.412E+01   -1.405E+01   -1.398E+01   -1.390E+01   -1.382E+01   -1.375E+01   -1.367E+01   -1.358E+01   -1.350E+01   -1.342E+01
    -1.333E+01   -1.324E+01   -1.315E+01   -1.306E+01   -1.296E+01   -1.287E+01   -1.277E+01   -1.267E+01   -1.257E+01   -1.246E+01
    -1.236E+01   -1.225E+01   -1.214E+01   -1.203E+01   -1.191E+01   -1.180E+01   -1.168E+01   -1.156E+01   -1.144E+01   -1.132E+01
    -1.119E+01   -1.107E+01   -1.094E+01   -1.081E+01   -1.068E+01   -1.055E+01   -1.042E+01   -1.028E+01   -1.015E+01   -1.001E+01
    -9.870E+00   -9.730E+00   -9.589E+00   -9.448E+00   -9.305E+00   -9.161E+00   -9.016E+00   -8.871E+00   -8.724E+00   -8.577E+00
    -8.429E+00   -8.281E+00   -8.131E+00   -7.981E+00   -7.831E+00   -7.680E+00   -7.529E+00   -7.377E+00   -7.225E+00   -7.073E+00
    -6.920E+00   -6.767E+00   -6.614E+00   -6.461E+00   -6.308E+00   -6.155E+00   -6.002E+00   -5.848E+00   -5.695E+00   -5.543E+00
    -5.390E+00   -5.238E+00   -5.086E+00   -4.934E+00   -4.783E+00   -4.632E+00   -4.482E+00   -4.332E+00   -4.183E+00   -4.035E+00
    -3.887E+00   -3.740E+00   -3.593E+00   -3.448E+00   -3.303E+00   -3.160E+00   -3.017E+00   -2.876E+00   -2.735E+00   -2.596E+00
    -2.458E+00   -2.320E+00   -2.185E+00   -2.050E+00   -1.917E+00   -1.786E+00   -1.655E+00   -1.527E+00   -1.399E+00   -1.274E+00
    -1.150E+00   -1.028E+00   -9.072E-01   -7.884E-01   -6.715E-01   -5.565E-01   -4.435E-01   -3.324E-01   -2.233E-01   -1.163E-01
    -1.139E-02    9.133E-02    1.918E-01    2.901E-01    3.860E-01    4.796E-01    5.708E-01    6.595E-01    7.458E-01    8.294E-01
     9.105E-01    9.890E-01    1.065E+00    1.138E+00    1.208E+00    1.275E+00    1.340E+00    1.402E+00    1.460E+00    1.516E+00
     1.568E+00    1.618E+00    1.664E+00    1.707E+00    1.747E+00    1.783E+00    1.817E+00    1.846E+00    1.873E+00    1.895E+00
     1.915E+00    1.930E+00    1.942E+00    1.951E+00    1.955E+00    1.956E+00    1.953E+00    1.946E+00
 Ala      Conc. = 2.36E+03
