 LCModel (Version 6.3-1L) Copyright: S.W. Provencher.          Ref.: Magn. Reson. Med. 30:672-679 (1993).                
 Slice#2 Row#10 Col#5  K_02_press_1_raw_act
 36 lines in following concentration table = NCONC+1
    Conc.  %SD /Cr+PCr  Metabolite                                         
    0.000 999%   0.000 Ala                                                 
    0.000 999%   0.000 Asp                                                 
 1.05E+03  27%   0.473 Cr                                                  
 1.17E+03  24%   0.527 PCr                                                 
    0.000 999%   0.000 GABA                                                
  504.319  50%   0.227 Glc                                                 
  700.697  44%   0.315 Gln                                                 
 1.98E+03  17%   0.892 Glu                                                 
 1.11E+03   3%   0.498 GPC                                                 
    0.000 999%   0.000 PCh                                                 
  936.962  10%   0.422 GSH                                                 
 3.74E+03  11%   1.682 Ins                                                 
  172.489  94% 7.8E-02 Lac                                                 
 3.53E+03   5%   1.588 NAA                                                 
  571.636  31%   0.257 NAAG                                                
  421.390  11%   0.190 Scyllo                                              
    0.000 999%   0.000 Tau                                                 
    0.000 999%   0.000 -CrCH2                                              
 1.11E+03   3%   0.498 GPC+PCh                                             
 4.10E+03   3%   1.845 NAA+NAAG                                            
 2.22E+03   3%   1.000 Cr+PCr                                              
 2.68E+03  19%   1.207 Glu+Gln                                             
 2.71E+03  37%   1.219 Lip13a                                              
   15.853 999% 7.1E-03 Lip13b                                              
  619.762  57%   0.279 Lip09                                               
 1.19E+03  30%   0.535 MM09                                                
  566.422  40%   0.255 Lip20                                               
 1.98E+03  27%   0.892 MM20                                                
  353.524  58%   0.159 MM12                                                
 1.21E+03  38%   0.543 MM14                                                
  736.923  39%   0.332 MM17                                                
 2.72E+03  33%   1.226 Lip13a+Lip13b                                       
 4.28E+03  20%   1.928 MM14+Lip13a+Lip13b+MM12                             
 1.81E+03  17%   0.814 MM09+Lip09                                          
 2.55E+03  20%   1.147 MM20+Lip20                                          
   6 lines in following misc. output table
  FWHM = 0.054 ppm    S/N =  16                                            
  Data shift = 0.023 ppm                                                   
  Ph: -40 deg     -19.1 deg/ppm                                            
  alphaB,S = 7.1E-01,   1.0E+02                                            
   14 spline knots.   Ns = 8(1)                                            
  (12) 4 infls.   ( 7) 1 extrs.                                            
  498 points on ppm-axis = NY
      4.000000     3.992357     3.984714     3.977070     3.969427     3.961784     3.954141     3.946497     3.938854     3.931211
      3.923568     3.915925     3.908281     3.900638     3.892995     3.885352     3.877708     3.870065     3.862422     3.854779
      3.847136     3.839492     3.831849     3.824206     3.816563     3.808919     3.801276     3.793633     3.785990     3.778347
      3.770703     3.763060     3.755417     3.747774     3.740130     3.732487     3.724844     3.717201     3.709558     3.701914
      3.694271     3.686628     3.678985     3.671341     3.663698     3.656055     3.648412     3.640769     3.633125     3.625482
      3.617839     3.610196     3.602552     3.594909     3.587266     3.579623     3.571980     3.564336     3.556693     3.549050
      3.541407     3.533763     3.526120     3.518477     3.510834     3.503191     3.495547     3.487904     3.480261     3.472618
      3.464974     3.457331     3.449688     3.442045     3.434402     3.426758     3.419115     3.411472     3.403829     3.396185
      3.388542     3.380899     3.373256     3.365613     3.357969     3.350326     3.342683     3.335040     3.327396     3.319753
      3.312110     3.304467     3.296824     3.289180     3.281537     3.273894     3.266251     3.258607     3.250964     3.243321
      3.235678     3.228034     3.220391     3.212748     3.205105     3.197462     3.189818     3.182175     3.174532     3.166889
      3.159245     3.151602     3.143959     3.136316     3.128673     3.121029     3.113386     3.105743     3.098100     3.090456
      3.082813     3.075170     3.067527     3.059884     3.052240     3.044597     3.036954     3.029311     3.021667     3.014024
      3.006381     2.998738     2.991095     2.983451     2.975808     2.968165     2.960522     2.952878     2.945235     2.937592
      2.929949     2.922306     2.914662     2.907019     2.899376     2.891733     2.884089     2.876446     2.868803     2.861160
      2.853517     2.845873     2.838230     2.830587     2.822944     2.815300     2.807657     2.800014     2.792371     2.784728
      2.777084     2.769441     2.761798     2.754155     2.746511     2.738868     2.731225     2.723582     2.715939     2.708295
      2.700652     2.693009     2.685366     2.677722     2.670079     2.662436     2.654793     2.647150     2.639506     2.631863
      2.624220     2.616577     2.608933     2.601290     2.593647     2.586004     2.578361     2.570717     2.563074     2.555431
      2.547788     2.540144     2.532501     2.524858     2.517215     2.509572     2.501928     2.494285     2.486642     2.478999
      2.471355     2.463712     2.456069     2.448426     2.440783     2.433139     2.425496     2.417853     2.410210     2.402566
      2.394923     2.387280     2.379637     2.371994     2.364350     2.356707     2.349064     2.341421     2.333777     2.326134
      2.318491     2.310848     2.303205     2.295561     2.287918     2.280275     2.272632     2.264988     2.257345     2.249702
      2.242059     2.234416     2.226772     2.219129     2.211486     2.203843     2.196199     2.188556     2.180913     2.173270
      2.165627     2.157983     2.150340     2.142697     2.135054     2.127410     2.119767     2.112124     2.104481     2.096838
      2.089194     2.081551     2.073908     2.066265     2.058621     2.050978     2.043335     2.035692     2.028049     2.020405
      2.012762     2.005119     1.997476     1.989833     1.982190     1.974546     1.966903     1.959260     1.951617     1.943974
      1.936331     1.928688     1.921045     1.913402     1.905759     1.898115     1.890472     1.882829     1.875186     1.867543
      1.859900     1.852257     1.844614     1.836971     1.829327     1.821684     1.814041     1.806398     1.798755     1.791112
      1.783469     1.775826     1.768183     1.760540     1.752896     1.745253     1.737610     1.729967     1.722324     1.714681
      1.707038     1.699395     1.691752     1.684108     1.676465     1.668822     1.661179     1.653536     1.645893     1.638250
      1.630607     1.622964     1.615321     1.607677     1.600034     1.592391     1.584748     1.577105     1.569462     1.561819
      1.554176     1.546533     1.538890     1.531246     1.523603     1.515960     1.508317     1.500674     1.493031     1.485388
      1.477745     1.470102     1.462458     1.454815     1.447172     1.439529     1.431886     1.424243     1.416600     1.408957
      1.401314     1.393671     1.386027     1.378384     1.370741     1.363098     1.355455     1.347812     1.340169     1.332526
      1.324883     1.317240     1.309596     1.301953     1.294310     1.286667     1.279024     1.271381     1.263738     1.256095
      1.248452     1.240808     1.233165     1.225522     1.217879     1.210236     1.202593     1.194950     1.187307     1.179664
      1.172021     1.164377     1.156734     1.149091     1.141448     1.133805     1.126162     1.118519     1.110876     1.103233
      1.095590     1.087946     1.080303     1.072660     1.065017     1.057374     1.049731     1.042088     1.034445     1.026802
      1.019158     1.011515     1.003872     0.996229     0.988586     0.980943     0.973300     0.965657     0.958014     0.950371
      0.942727     0.935084     0.927441     0.919798     0.912155     0.904512     0.896869     0.889226     0.881583     0.873940
      0.866296     0.858653     0.851010     0.843367     0.835724     0.828081     0.820438     0.812795     0.805152     0.797508
      0.789865     0.782222     0.774579     0.766936     0.759293     0.751650     0.744007     0.736364     0.728721     0.721077
      0.713434     0.705791     0.698148     0.690505     0.682862     0.675219     0.667576     0.659933     0.652290     0.644646
      0.637003     0.629360     0.621717     0.614074     0.606431     0.598788     0.591145     0.583502     0.575858     0.568215
      0.560572     0.552929     0.545286     0.537643     0.530000     0.522357     0.514714     0.507071     0.499427     0.491784
      0.484141     0.476498     0.468855     0.461212     0.453569     0.445925     0.438282     0.430639     0.422996     0.415353
      0.407710     0.400067     0.392424     0.384780     0.377137     0.369494     0.361851     0.354208     0.346565     0.338922
      0.331278     0.323635     0.315992     0.308349     0.300706     0.293063     0.285420     0.277777     0.270133     0.262490
      0.254847     0.247204     0.239561     0.231918     0.224275     0.216631     0.208988     0.201345
 NY phased data points follow
  -1.80521E+02 -1.77462E+02 -1.74568E+02 -1.64946E+02 -1.60475E+02 -1.52269E+02 -1.42112E+02 -1.34395E+02 -1.26230E+02 -1.22333E+02
  -1.12686E+02 -1.19180E+02 -1.23050E+02 -1.31174E+02 -1.36914E+02 -1.45073E+02 -1.49219E+02 -1.48559E+02 -1.53118E+02 -1.48347E+02
  -1.47372E+02 -1.47047E+02 -1.45032E+02 -1.42249E+02 -1.41096E+02 -1.33839E+02 -1.32643E+02 -1.26785E+02 -1.23746E+02 -1.16541E+02
  -1.14080E+02 -1.17712E+02 -1.18352E+02 -1.13941E+02 -1.14650E+02 -1.13764E+02 -1.17541E+02 -1.14422E+02 -1.09772E+02 -1.12937E+02
  -1.10253E+02 -1.06470E+02 -1.05379E+02 -1.01060E+02 -9.80666E+01 -9.72398E+01 -9.17118E+01 -8.84904E+01 -9.20783E+01 -9.53316E+01
  -9.72804E+01 -9.82278E+01 -9.78582E+01 -9.58001E+01 -9.68340E+01 -9.49778E+01 -9.72447E+01 -9.33525E+01 -9.89065E+01 -9.82652E+01
  -9.40419E+01 -9.80672E+01 -9.77607E+01 -9.37508E+01 -9.83136E+01 -9.61475E+01 -9.50946E+01 -9.01051E+01 -9.53641E+01 -8.97917E+01
  -8.58731E+01 -8.97574E+01 -8.46363E+01 -8.13850E+01 -8.03510E+01 -7.84130E+01 -7.98285E+01 -7.95626E+01 -7.83052E+01 -7.71946E+01
  -7.96894E+01 -7.08315E+01 -7.50882E+01 -7.15794E+01 -7.22130E+01 -7.20102E+01 -6.58321E+01 -6.63184E+01 -6.21634E+01 -6.20368E+01
  -6.20314E+01 -5.37573E+01 -5.11245E+01 -5.24038E+01 -4.95361E+01 -4.62804E+01 -4.33542E+01 -3.96267E+01 -3.16662E+01 -1.49319E+01
   4.44737E+00  2.42005E+01  1.70068E+01  1.68395E+01  4.09706E+00 -4.41014E+00 -1.73866E+01 -3.39175E+01 -3.68252E+01 -5.06224E+01
  -4.75791E+01 -5.64368E+01 -5.69407E+01 -6.24085E+01 -5.40287E+01 -5.43759E+01 -5.37327E+01 -5.01304E+01 -4.85755E+01 -4.49603E+01
  -4.32374E+01 -3.98242E+01 -3.27541E+01 -2.40353E+01 -2.18890E+00  9.32586E+00  1.31981E+01  1.46385E+01  7.51328E+00  5.25430E-01
  -1.09047E+01 -1.61694E+01 -2.50896E+01 -3.45799E+01 -3.79230E+01 -4.52968E+01 -4.65423E+01 -4.65684E+01 -4.86981E+01 -4.64988E+01
  -4.56877E+01 -4.48754E+01 -4.47755E+01 -4.13432E+01 -4.27913E+01 -4.25299E+01 -4.65378E+01 -3.89879E+01 -3.84726E+01 -3.81164E+01
  -4.19841E+01 -3.70260E+01 -4.16526E+01 -3.61779E+01 -3.61328E+01 -3.75584E+01 -3.84136E+01 -3.08098E+01 -3.48571E+01 -3.30741E+01
  -3.53078E+01 -3.89291E+01 -3.60431E+01 -3.55987E+01 -3.57491E+01 -3.57979E+01 -3.69424E+01 -4.03148E+01 -4.62316E+01 -4.46535E+01
  -4.76114E+01 -4.26203E+01 -5.00005E+01 -4.89731E+01 -4.95959E+01 -5.12440E+01 -5.29263E+01 -4.53648E+01 -4.50638E+01 -4.50800E+01
  -4.30664E+01 -4.75658E+01 -4.29287E+01 -4.17361E+01 -4.12216E+01 -3.78751E+01 -3.93562E+01 -3.66180E+01 -3.12489E+01 -2.25884E+01
  -2.05651E+01 -2.09411E+01 -2.04622E+01 -2.12813E+01 -1.51467E+01 -1.88694E+01 -2.12157E+01 -2.69549E+01 -2.42559E+01 -2.69228E+01
  -1.87666E+01 -1.96115E+01 -1.84504E+01 -1.73260E+01 -1.23563E+01 -1.77108E+01 -1.56063E+01 -2.01235E+01 -1.84103E+01 -2.19085E+01
  -2.35301E+01 -1.65953E+01 -1.53298E+01 -1.38531E+01 -1.01817E+01 -2.33367E+00 -4.76037E+00 -3.26675E+00 -4.78251E+00 -6.05563E+00
  -1.65575E+01 -1.49464E+01 -1.50861E+01 -1.51712E+01 -1.16726E+01 -1.10853E+01 -8.28925E+00 -3.55607E+00 -4.84826E+00 -3.65600E+00
  -3.70954E+00 -4.40315E-01 -9.37435E-01 -2.38490E+00 -2.53370E+00 -2.93384E+00 -2.60094E-01  2.82233E-02 -2.41355E+00 -2.66248E+00
  -1.13365E+01 -8.24613E+00 -9.51693E+00 -7.01847E+00 -5.02190E+00  1.58739E+00  3.15292E+00  6.33714E+00  8.19210E+00  8.68901E+00
   1.27689E+01  1.67827E+01  3.08483E+01  3.62687E+01  5.29200E+01  5.46935E+01  5.53465E+01  7.30726E+01  1.01226E+02  1.19094E+02
   1.22299E+02  1.05632E+02  9.26767E+01  8.14577E+01  6.33984E+01  4.54533E+01  3.42006E+01  2.53499E+01  1.89260E+01  1.40113E+01
   1.21098E+01  3.86721E+00  9.75083E+00  7.46141E+00  3.76071E+00  4.78259E+00  5.17048E+00  5.22697E+00  6.77324E+00  2.13833E+00
   9.37251E+00  3.35066E+00  5.72953E+00 -1.83566E-01  1.85969E+00  6.74422E+00  5.14998E+00 -3.14240E-01  1.32831E+00  3.23897E+00
   2.79072E+00  3.12043E+00  2.10088E+00  5.22617E+00  2.63931E+00  2.00478E+00  8.10337E-01  2.96587E+00  1.83880E+00  5.42922E+00
   6.70199E+00  4.44974E+00  8.45537E+00  9.00391E+00  1.04251E+01  1.24369E+01  1.10756E+01  9.66251E+00  1.16506E+01  1.25049E+01
   1.00060E+01  1.50532E+01  1.35847E+01  1.55097E+01  1.29274E+01  1.04287E+01  1.10338E+01  1.16980E+01  9.85117E+00  1.16523E+01
   1.16354E+01  1.12362E+01  1.31557E+01  1.63319E+01  1.80030E+01  1.34358E+01  1.45953E+01  1.46794E+01  9.37799E+00  1.10990E+01
   1.93974E+01  1.68944E+01  1.76387E+01  1.61793E+01  1.83962E+01  1.84394E+01  1.98667E+01  1.88732E+01  1.49880E+01  1.44727E+01
   2.05467E+01  1.72594E+01  2.28298E+01  2.15216E+01  2.15933E+01  2.22003E+01  2.02061E+01  2.13753E+01  2.39946E+01  2.36044E+01
   1.98172E+01  2.04378E+01  2.14845E+01  2.06990E+01  2.25426E+01  2.49213E+01  2.47100E+01  2.37951E+01  2.48079E+01  2.49103E+01
   1.99607E+01  2.27966E+01  2.22289E+01  2.47288E+01  2.14979E+01  2.32708E+01  1.81251E+01  1.68415E+01  1.91739E+01  2.20871E+01
   1.72585E+01  1.94359E+01  1.82091E+01  1.75125E+01  1.62987E+01  1.48760E+01  2.05523E+01  1.68028E+01  1.64217E+01  1.88727E+01
   1.55223E+01  1.63344E+01  1.64946E+01  1.18343E+01  1.97674E+01  1.69580E+01  1.86597E+01  1.51092E+01  1.62863E+01  1.48874E+01
   1.86774E+01  1.73184E+01  1.66101E+01  1.93257E+01  2.12849E+01  2.17297E+01  1.99440E+01  2.33444E+01  2.28127E+01  2.25915E+01
   2.14299E+01  2.39944E+01  2.42985E+01  2.48966E+01  2.68909E+01  2.70317E+01  2.77596E+01  2.65478E+01  2.48255E+01  2.94319E+01
   2.39889E+01  2.52804E+01  2.27255E+01  2.57939E+01  2.37034E+01  2.99845E+01  2.55614E+01  2.60289E+01  1.87522E+01  2.00474E+01
   2.66249E+01  2.03253E+01  1.72630E+01  2.09230E+01  1.78207E+01  1.88085E+01  1.49424E+01  1.34323E+01  1.87539E+01  1.55661E+01
   1.71676E+01  1.91166E+01  1.53016E+01  1.53822E+01  1.24529E+01  1.62485E+01  1.36904E+01  2.00581E+01  1.50710E+01  1.41806E+01
   2.10296E+01  1.70299E+01  1.29966E+01  1.59153E+01  1.74259E+01  1.75246E+01  1.93132E+01  1.67422E+01  2.16549E+01  1.96673E+01
   1.79700E+01  1.37256E+01  1.30048E+01  2.02092E+01  2.26853E+01  1.49021E+01  1.14889E+01  2.04742E+01  1.66855E+01  1.88515E+01
   1.78885E+01  1.88959E+01  1.56902E+01  1.88120E+01  1.76591E+01  1.42385E+01  1.73431E+01  2.08859E+01  1.58549E+01  1.77209E+01
   2.01698E+01  1.78062E+01  1.87154E+01  1.88206E+01  1.87225E+01  1.77475E+01  1.65998E+01  1.71742E+01  1.80212E+01  1.72079E+01
   1.98187E+01  2.01764E+01  1.92791E+01  1.84382E+01  1.61346E+01  1.68291E+01  1.94092E+01  1.94082E+01  1.55743E+01  1.40151E+01
   2.14878E+01  2.03285E+01  2.04120E+01  2.04296E+01  1.70690E+01  1.49609E+01  1.57186E+01  1.77529E+01
 NY points of the fit to the data follow
  -1.74865E+02 -1.71876E+02 -1.67383E+02 -1.62566E+02 -1.58301E+02 -1.52991E+02 -1.45092E+02 -1.35094E+02 -1.25782E+02 -1.20288E+02
  -1.19484E+02 -1.21957E+02 -1.25875E+02 -1.30349E+02 -1.35001E+02 -1.39311E+02 -1.42786E+02 -1.45262E+02 -1.46964E+02 -1.47609E+02
  -1.47556E+02 -1.46571E+02 -1.44091E+02 -1.41386E+02 -1.39213E+02 -1.37085E+02 -1.33854E+02 -1.28631E+02 -1.22294E+02 -1.16699E+02
  -1.13366E+02 -1.12164E+02 -1.12015E+02 -1.12299E+02 -1.13252E+02 -1.15082E+02 -1.17408E+02 -1.19086E+02 -1.19101E+02 -1.17672E+02
  -1.15612E+02 -1.13610E+02 -1.10857E+02 -1.06003E+02 -9.95278E+01 -9.38372E+01 -9.11232E+01 -9.13590E+01 -9.32996E+01 -9.60267E+01
  -9.88719E+01 -1.01206E+02 -1.02526E+02 -1.02798E+02 -1.02558E+02 -1.01814E+02 -1.00123E+02 -9.75706E+01 -9.50343E+01 -9.34044E+01
  -9.29157E+01 -9.33010E+01 -9.39745E+01 -9.42785E+01 -9.40636E+01 -9.33225E+01 -9.21277E+01 -9.05505E+01 -8.85507E+01 -8.63718E+01
  -8.44864E+01 -8.30983E+01 -8.21025E+01 -8.12669E+01 -8.05447E+01 -8.00110E+01 -7.96086E+01 -7.93471E+01 -7.93162E+01 -7.91524E+01
  -7.76701E+01 -7.56628E+01 -7.47571E+01 -7.47108E+01 -7.39900E+01 -7.10154E+01 -6.62063E+01 -6.17737E+01 -5.96378E+01 -5.96075E+01
  -6.02355E+01 -6.08033E+01 -6.12225E+01 -5.95782E+01 -5.28043E+01 -4.64435E+01 -4.35392E+01 -4.06482E+01 -3.14068E+01 -1.34543E+01
   6.98522E+00  2.03270E+01  2.21312E+01  1.56726E+01  5.84133E+00 -5.58461E+00 -1.83848E+01 -3.07150E+01 -4.02256E+01 -4.67148E+01
  -5.19039E+01 -5.65383E+01 -5.85667E+01 -5.88168E+01 -5.85831E+01 -5.81328E+01 -5.74786E+01 -5.61283E+01 -5.16521E+01 -4.44314E+01
  -3.94787E+01 -3.64614E+01 -3.16088E+01 -2.10738E+01 -5.56931E+00  8.64220E+00  1.52465E+01  1.33531E+01  6.94789E+00 -7.03658E-01
  -9.06450E+00 -1.77795E+01 -2.55781E+01 -3.17677E+01 -3.68902E+01 -4.19349E+01 -4.57282E+01 -4.68079E+01 -4.64173E+01 -4.52426E+01
  -4.37724E+01 -4.24868E+01 -4.16690E+01 -4.12243E+01 -4.09453E+01 -4.08360E+01 -4.08870E+01 -4.09916E+01 -4.10804E+01 -4.11358E+01
  -4.11734E+01 -4.12205E+01 -4.12958E+01 -4.14942E+01 -4.14943E+01 -4.11315E+01 -4.05461E+01 -4.00454E+01 -4.01504E+01 -4.07046E+01
  -4.10969E+01 -4.09081E+01 -4.02540E+01 -3.95812E+01 -3.92782E+01 -3.93733E+01 -3.96783E+01 -4.01375E+01 -4.07446E+01 -4.11330E+01
  -4.10046E+01 -4.07864E+01 -4.09316E+01 -4.16453E+01 -4.23135E+01 -4.21862E+01 -4.13371E+01 -4.05112E+01 -4.02104E+01 -4.02971E+01
  -3.99903E+01 -3.90192E+01 -3.78407E+01 -3.68755E+01 -3.60447E+01 -3.49692E+01 -3.33659E+01 -3.11357E+01 -2.84984E+01 -2.59343E+01
  -2.40673E+01 -2.29102E+01 -2.23872E+01 -2.24089E+01 -2.28648E+01 -2.35149E+01 -2.38279E+01 -2.35442E+01 -2.25446E+01 -2.10956E+01
  -1.95479E+01 -1.79192E+01 -1.64630E+01 -1.53528E+01 -1.50256E+01 -1.57941E+01 -1.72018E+01 -1.87031E+01 -1.98085E+01 -2.02042E+01
  -2.03726E+01 -2.00666E+01 -1.86934E+01 -1.59600E+01 -1.26597E+01 -1.03053E+01 -9.37568E+00 -9.39139E+00 -1.02447E+01 -1.21203E+01
  -1.49320E+01 -1.75023E+01 -1.84080E+01 -1.75282E+01 -1.55928E+01 -1.31873E+01 -1.05128E+01 -7.84903E+00 -5.94697E+00 -4.88418E+00
  -4.28896E+00 -3.80257E+00 -3.21085E+00 -2.60243E+00 -1.88796E+00 -9.64650E-01 -1.28708E-01  2.37146E-01 -1.62270E-02 -9.00015E-01
  -2.11661E+00 -3.23026E+00 -3.70910E+00 -3.15162E+00 -1.73645E+00  6.31575E-02  1.91751E+00  4.17498E+00  7.11188E+00  9.31784E+00
   1.08039E+01  1.39077E+01  2.45219E+01  3.89896E+01  4.88332E+01  5.45976E+01  6.24454E+01  7.84715E+01  1.00026E+02  1.16260E+02
   1.18888E+02  1.09853E+02  9.61717E+01  8.12665E+01  6.47546E+01  4.78935E+01  3.42853E+01  2.49472E+01  1.78980E+01  1.10336E+01
   6.55178E+00  5.20635E+00  4.76400E+00  4.55667E+00  4.40360E+00  4.28219E+00  4.14923E+00  4.01472E+00  3.86502E+00  3.70083E+00
   3.57359E+00  3.52557E+00  3.52227E+00  3.52024E+00  3.53404E+00  3.58060E+00  3.64159E+00  3.69599E+00  3.76095E+00  3.87276E+00
   4.04298E+00  4.24612E+00  4.47306E+00  4.72871E+00  5.00981E+00  5.30405E+00  5.60554E+00  5.92251E+00  6.27153E+00  6.65968E+00
   7.07790E+00  7.51647E+00  7.97377E+00  8.44209E+00  8.90924E+00  9.36314E+00  9.79574E+00  1.02029E+01  1.05799E+01  1.09190E+01
   1.12191E+01  1.14791E+01  1.16994E+01  1.18834E+01  1.20364E+01  1.21642E+01  1.22731E+01  1.23702E+01  1.24639E+01  1.25628E+01
   1.26741E+01  1.28039E+01  1.29568E+01  1.31363E+01  1.33451E+01  1.35845E+01  1.38540E+01  1.41513E+01  1.44735E+01  1.48176E+01
   1.51807E+01  1.55599E+01  1.59518E+01  1.63537E+01  1.67641E+01  1.71839E+01  1.76165E+01  1.80703E+01  1.85682E+01  1.91515E+01
   1.96881E+01  2.00643E+01  2.04235E+01  2.08922E+01  2.14547E+01  2.18949E+01  2.19847E+01  2.18529E+01  2.16819E+01  2.15066E+01
   2.13287E+01  2.12289E+01  2.14234E+01  2.20176E+01  2.28072E+01  2.34596E+01  2.38308E+01  2.40239E+01  2.40874E+01  2.39490E+01
   2.36244E+01  2.31959E+01  2.27368E+01  2.22537E+01  2.17082E+01  2.11565E+01  2.06420E+01  2.01465E+01  1.96645E+01  1.91977E+01
   1.87497E+01  1.83241E+01  1.79245E+01  1.75544E+01  1.72171E+01  1.69158E+01  1.66528E+01  1.64300E+01  1.62488E+01  1.61107E+01
   1.60173E+01  1.59703E+01  1.59706E+01  1.60196E+01  1.61184E+01  1.62686E+01  1.64721E+01  1.67301E+01  1.70436E+01  1.74128E+01
   1.78374E+01  1.83168E+01  1.88486E+01  1.94290E+01  2.00522E+01  2.07105E+01  2.13948E+01  2.20942E+01  2.27957E+01  2.34850E+01
   2.41462E+01  2.47635E+01  2.53216E+01  2.58060E+01  2.62033E+01  2.65025E+01  2.66953E+01  2.67768E+01  2.67461E+01  2.66053E+01
   2.63600E+01  2.60186E+01  2.55925E+01  2.50953E+01  2.45420E+01  2.39480E+01  2.33285E+01  2.26979E+01  2.20696E+01  2.14559E+01
   2.08667E+01  2.03098E+01  1.97911E+01  1.93142E+01  1.88815E+01  1.84940E+01  1.81509E+01  1.78506E+01  1.75904E+01  1.73674E+01
   1.71787E+01  1.70212E+01  1.68915E+01  1.67864E+01  1.67026E+01  1.66375E+01  1.65891E+01  1.65551E+01  1.65334E+01  1.65221E+01
   1.65197E+01  1.65251E+01  1.65374E+01  1.65555E+01  1.65784E+01  1.66052E+01  1.66354E+01  1.66687E+01  1.67047E+01  1.67428E+01
   1.67825E+01  1.68233E+01  1.68652E+01  1.69081E+01  1.69519E+01  1.69961E+01  1.70405E+01  1.70850E+01  1.71298E+01  1.71749E+01
   1.72201E+01  1.72651E+01  1.73097E+01  1.73542E+01  1.73986E+01  1.74430E+01  1.74871E+01  1.75307E+01  1.75738E+01  1.76167E+01
   1.76593E+01  1.77018E+01  1.77437E+01  1.77851E+01  1.78261E+01  1.78668E+01  1.79073E+01  1.79474E+01  1.79870E+01  1.80261E+01
   1.80649E+01  1.81034E+01  1.81418E+01  1.81797E+01  1.82172E+01  1.82542E+01  1.82911E+01  1.83279E+01  1.83646E+01  1.84008E+01
   1.84367E+01  1.84724E+01  1.85081E+01  1.85439E+01  1.85796E+01  1.86150E+01  1.86504E+01  1.86859E+01
 NY background values follow
    -1.855E+02   -1.841E+02   -1.826E+02   -1.812E+02   -1.798E+02   -1.784E+02   -1.770E+02   -1.755E+02   -1.741E+02   -1.727E+02
    -1.713E+02   -1.699E+02   -1.685E+02   -1.670E+02   -1.656E+02   -1.642E+02   -1.628E+02   -1.614E+02   -1.600E+02   -1.586E+02
    -1.572E+02   -1.558E+02   -1.545E+02   -1.531E+02   -1.517E+02   -1.503E+02   -1.490E+02   -1.476E+02   -1.463E+02   -1.449E+02
    -1.436E+02   -1.422E+02   -1.409E+02   -1.396E+02   -1.382E+02   -1.369E+02   -1.356E+02   -1.343E+02   -1.330E+02   -1.317E+02
    -1.305E+02   -1.292E+02   -1.279E+02   -1.267E+02   -1.255E+02   -1.242E+02   -1.230E+02   -1.218E+02   -1.206E+02   -1.194E+02
    -1.182E+02   -1.170E+02   -1.159E+02   -1.147E+02   -1.136E+02   -1.124E+02   -1.113E+02   -1.102E+02   -1.091E+02   -1.080E+02
    -1.069E+02   -1.058E+02   -1.047E+02   -1.037E+02   -1.026E+02   -1.016E+02   -1.005E+02   -9.950E+01   -9.849E+01   -9.748E+01
    -9.648E+01   -9.550E+01   -9.452E+01   -9.355E+01   -9.259E+01   -9.164E+01   -9.070E+01   -8.977E+01   -8.885E+01   -8.794E+01
    -8.704E+01   -8.614E+01   -8.526E+01   -8.438E+01   -8.352E+01   -8.266E+01   -8.182E+01   -8.098E+01   -8.015E+01   -7.933E+01
    -7.853E+01   -7.773E+01   -7.694E+01   -7.616E+01   -7.538E+01   -7.462E+01   -7.387E+01   -7.312E+01   -7.239E+01   -7.166E+01
    -7.094E+01   -7.023E+01   -6.953E+01   -6.884E+01   -6.816E+01   -6.748E+01   -6.682E+01   -6.616E+01   -6.551E+01   -6.486E+01
    -6.423E+01   -6.360E+01   -6.298E+01   -6.237E+01   -6.177E+01   -6.117E+01   -6.058E+01   -6.000E+01   -5.943E+01   -5.886E+01
    -5.830E+01   -5.775E+01   -5.720E+01   -5.666E+01   -5.613E+01   -5.561E+01   -5.509E+01   -5.458E+01   -5.407E+01   -5.358E+01
    -5.309E+01   -5.260E+01   -5.212E+01   -5.165E+01   -5.118E+01   -5.072E+01   -5.027E+01   -4.982E+01   -4.937E+01   -4.894E+01
    -4.850E+01   -4.808E+01   -4.765E+01   -4.723E+01   -4.682E+01   -4.641E+01   -4.600E+01   -4.560E+01   -4.520E+01   -4.481E+01
    -4.441E+01   -4.402E+01   -4.363E+01   -4.325E+01   -4.287E+01   -4.248E+01   -4.210E+01   -4.173E+01   -4.135E+01   -4.097E+01
    -4.060E+01   -4.022E+01   -3.985E+01   -3.947E+01   -3.910E+01   -3.872E+01   -3.835E+01   -3.797E+01   -3.759E+01   -3.722E+01
    -3.684E+01   -3.646E+01   -3.607E+01   -3.569E+01   -3.530E+01   -3.491E+01   -3.452E+01   -3.412E+01   -3.372E+01   -3.332E+01
    -3.291E+01   -3.250E+01   -3.209E+01   -3.167E+01   -3.125E+01   -3.083E+01   -3.040E+01   -2.997E+01   -2.954E+01   -2.910E+01
    -2.866E+01   -2.823E+01   -2.779E+01   -2.734E+01   -2.690E+01   -2.646E+01   -2.601E+01   -2.557E+01   -2.512E+01   -2.467E+01
    -2.423E+01   -2.378E+01   -2.334E+01   -2.290E+01   -2.245E+01   -2.201E+01   -2.157E+01   -2.114E+01   -2.070E+01   -2.027E+01
    -1.984E+01   -1.941E+01   -1.898E+01   -1.856E+01   -1.814E+01   -1.773E+01   -1.732E+01   -1.691E+01   -1.651E+01   -1.611E+01
    -1.572E+01   -1.533E+01   -1.494E+01   -1.457E+01   -1.419E+01   -1.383E+01   -1.347E+01   -1.311E+01   -1.277E+01   -1.243E+01
    -1.209E+01   -1.176E+01   -1.144E+01   -1.112E+01   -1.081E+01   -1.050E+01   -1.020E+01   -9.907E+00   -9.616E+00   -9.331E+00
    -9.051E+00   -8.776E+00   -8.506E+00   -8.240E+00   -7.979E+00   -7.723E+00   -7.471E+00   -7.223E+00   -6.980E+00   -6.741E+00
    -6.506E+00   -6.274E+00   -6.047E+00   -5.823E+00   -5.603E+00   -5.387E+00   -5.174E+00   -4.964E+00   -4.758E+00   -4.554E+00
    -4.354E+00   -4.157E+00   -3.962E+00   -3.770E+00   -3.581E+00   -3.395E+00   -3.210E+00   -3.028E+00   -2.849E+00   -2.671E+00
    -2.496E+00   -2.322E+00   -2.150E+00   -1.980E+00   -1.812E+00   -1.646E+00   -1.481E+00   -1.318E+00   -1.157E+00   -9.969E-01
    -8.388E-01   -6.823E-01   -5.274E-01   -3.741E-01   -2.223E-01   -7.196E-02    7.684E-02    2.242E-01    3.701E-01    5.146E-01
     6.576E-01    7.994E-01    9.397E-01    1.079E+00    1.217E+00    1.353E+00    1.488E+00    1.622E+00    1.755E+00    1.887E+00
     2.017E+00    2.146E+00    2.274E+00    2.401E+00    2.527E+00    2.652E+00    2.776E+00    2.899E+00    3.021E+00    3.142E+00
     3.262E+00    3.382E+00    3.500E+00    3.617E+00    3.734E+00    3.850E+00    3.965E+00    4.079E+00    4.193E+00    4.306E+00
     4.418E+00    4.529E+00    4.639E+00    4.749E+00    4.858E+00    4.967E+00    5.075E+00    5.182E+00    5.288E+00    5.394E+00
     5.499E+00    5.603E+00    5.707E+00    5.810E+00    5.912E+00    6.014E+00    6.115E+00    6.216E+00    6.315E+00    6.415E+00
     6.513E+00    6.611E+00    6.709E+00    6.806E+00    6.902E+00    6.998E+00    7.093E+00    7.187E+00    7.281E+00    7.375E+00
     7.468E+00    7.560E+00    7.652E+00    7.743E+00    7.834E+00    7.925E+00    8.014E+00    8.104E+00    8.192E+00    8.281E+00
     8.369E+00    8.456E+00    8.543E+00    8.630E+00    8.716E+00    8.801E+00    8.887E+00    8.972E+00    9.056E+00    9.140E+00
     9.224E+00    9.308E+00    9.392E+00    9.475E+00    9.558E+00    9.641E+00    9.724E+00    9.806E+00    9.889E+00    9.971E+00
     1.005E+01    1.014E+01    1.022E+01    1.030E+01    1.038E+01    1.047E+01    1.055E+01    1.063E+01    1.071E+01    1.080E+01
     1.088E+01    1.096E+01    1.105E+01    1.113E+01    1.121E+01    1.130E+01    1.138E+01    1.147E+01    1.155E+01    1.164E+01
     1.172E+01    1.181E+01    1.190E+01    1.198E+01    1.207E+01    1.216E+01    1.225E+01    1.234E+01    1.243E+01    1.252E+01
     1.261E+01    1.270E+01    1.279E+01    1.288E+01    1.297E+01    1.307E+01    1.316E+01    1.325E+01    1.335E+01    1.344E+01
     1.353E+01    1.363E+01    1.372E+01    1.381E+01    1.391E+01    1.400E+01    1.409E+01    1.418E+01    1.428E+01    1.437E+01
     1.446E+01    1.455E+01    1.464E+01    1.473E+01    1.482E+01    1.491E+01    1.500E+01    1.509E+01    1.518E+01    1.526E+01
     1.535E+01    1.543E+01    1.552E+01    1.560E+01    1.568E+01    1.577E+01    1.585E+01    1.593E+01    1.600E+01    1.608E+01
     1.616E+01    1.623E+01    1.631E+01    1.638E+01    1.645E+01    1.652E+01    1.659E+01    1.666E+01    1.672E+01    1.679E+01
     1.685E+01    1.692E+01    1.698E+01    1.704E+01    1.710E+01    1.716E+01    1.722E+01    1.727E+01    1.733E+01    1.739E+01
     1.744E+01    1.749E+01    1.755E+01    1.760E+01    1.765E+01    1.770E+01    1.775E+01    1.780E+01    1.784E+01    1.789E+01
     1.794E+01    1.798E+01    1.803E+01    1.807E+01    1.811E+01    1.816E+01    1.820E+01    1.824E+01    1.828E+01    1.832E+01
     1.836E+01    1.840E+01    1.844E+01    1.848E+01    1.852E+01    1.856E+01    1.860E+01    1.863E+01
 Cr       Conc. = 1.05E+03
