 LCModel (Version 6.3-1L) Copyright: S.W. Provencher.          Ref.: Magn. Reson. Med. 30:672-679 (1993).                
 Slice#3 Row#14 Col#11  K_02_press_1_raw_act
 36 lines in following concentration table = NCONC+1
    Conc.  %SD /Cr+PCr  Metabolite                                         
    0.000 999%   0.000 Ala                                                 
    5.009  80%   0.145 Asp                                                 
    0.000 999%   0.000 Cr                                                  
   34.513  50%   1.000 PCr                                                 
    3.071  78% 8.9E-02 GABA                                                
    2.939  82% 8.5E-02 Glc                                                 
  283.994  50%   8.228 Gln                                                 
  398.955  41%  11.559 Glu                                                 
    0.000 999%   0.000 GPC                                                 
    0.000 999%   0.000 PCh                                                 
    0.000 999%   0.000 GSH                                                 
    0.000 999%   0.000 Ins                                                 
    0.000 999%   0.000 Lac                                                 
    0.000 999%   0.000 NAA                                                 
   66.731  43%   1.933 NAAG                                                
    1.012  79% 2.9E-02 Scyllo                                              
    4.953  81%   0.144 Tau                                                 
    2.070 309% 6.0E-02 -CrCH2                                              
    0.000 999%   0.000 GPC+PCh                                             
   66.731  43%   1.933 NAA+NAAG                                            
   34.513  50%   1.000 Cr+PCr                                              
  682.949  35%  19.788 Glu+Gln                                             
  308.000  31%   8.924 Lip13a                                              
    0.000 999%   0.000 Lip13b                                              
   49.450  88%   1.433 Lip09                                               
  140.640  35%   4.075 MM09                                                
   32.595  88%   0.944 Lip20                                               
   23.231 445%   0.673 MM20                                                
   93.187  42%   2.700 MM12                                                
  314.569  25%   9.114 MM14                                                
  419.650  18%  12.159 MM17                                                
  308.000  31%   8.924 Lip13a+Lip13b                                       
  715.756  13%  20.738 MM14+Lip13a+Lip13b+MM12                             
  190.090  20%   5.508 MM09+Lip09                                          
   55.826 178%   1.618 MM20+Lip20                                          
   6 lines in following misc. output table
  FWHM = 0.107 ppm    S/N =   2                                            
  Data shift = 0.031 ppm                                                   
  Ph:  69 deg      59.8 deg/ppm                                            
  alphaB,S = 8.5E+01,   1.0E+02                                            
   14 spline knots.   Ns = 8(2)                                            
   2 inflections.     1 extrema                                            
  498 points on ppm-axis = NY
      4.000000     3.992357     3.984714     3.977070     3.969427     3.961784     3.954141     3.946497     3.938854     3.931211
      3.923568     3.915925     3.908281     3.900638     3.892995     3.885352     3.877708     3.870065     3.862422     3.854779
      3.847136     3.839492     3.831849     3.824206     3.816563     3.808919     3.801276     3.793633     3.785990     3.778347
      3.770703     3.763060     3.755417     3.747774     3.740130     3.732487     3.724844     3.717201     3.709558     3.701914
      3.694271     3.686628     3.678985     3.671341     3.663698     3.656055     3.648412     3.640769     3.633125     3.625482
      3.617839     3.610196     3.602552     3.594909     3.587266     3.579623     3.571980     3.564336     3.556693     3.549050
      3.541407     3.533763     3.526120     3.518477     3.510834     3.503191     3.495547     3.487904     3.480261     3.472618
      3.464974     3.457331     3.449688     3.442045     3.434402     3.426758     3.419115     3.411472     3.403829     3.396185
      3.388542     3.380899     3.373256     3.365613     3.357969     3.350326     3.342683     3.335040     3.327396     3.319753
      3.312110     3.304467     3.296824     3.289180     3.281537     3.273894     3.266251     3.258607     3.250964     3.243321
      3.235678     3.228034     3.220391     3.212748     3.205105     3.197462     3.189818     3.182175     3.174532     3.166889
      3.159245     3.151602     3.143959     3.136316     3.128673     3.121029     3.113386     3.105743     3.098100     3.090456
      3.082813     3.075170     3.067527     3.059884     3.052240     3.044597     3.036954     3.029311     3.021667     3.014024
      3.006381     2.998738     2.991095     2.983451     2.975808     2.968165     2.960522     2.952878     2.945235     2.937592
      2.929949     2.922306     2.914662     2.907019     2.899376     2.891733     2.884089     2.876446     2.868803     2.861160
      2.853517     2.845873     2.838230     2.830587     2.822944     2.815300     2.807657     2.800014     2.792371     2.784728
      2.777084     2.769441     2.761798     2.754155     2.746511     2.738868     2.731225     2.723582     2.715939     2.708295
      2.700652     2.693009     2.685366     2.677722     2.670079     2.662436     2.654793     2.647150     2.639506     2.631863
      2.624220     2.616577     2.608933     2.601290     2.593647     2.586004     2.578361     2.570717     2.563074     2.555431
      2.547788     2.540144     2.532501     2.524858     2.517215     2.509572     2.501928     2.494285     2.486642     2.478999
      2.471355     2.463712     2.456069     2.448426     2.440783     2.433139     2.425496     2.417853     2.410210     2.402566
      2.394923     2.387280     2.379637     2.371994     2.364350     2.356707     2.349064     2.341421     2.333777     2.326134
      2.318491     2.310848     2.303205     2.295561     2.287918     2.280275     2.272632     2.264988     2.257345     2.249702
      2.242059     2.234416     2.226772     2.219129     2.211486     2.203843     2.196199     2.188556     2.180913     2.173270
      2.165627     2.157983     2.150340     2.142697     2.135054     2.127410     2.119767     2.112124     2.104481     2.096838
      2.089194     2.081551     2.073908     2.066265     2.058621     2.050978     2.043335     2.035692     2.028049     2.020405
      2.012762     2.005119     1.997476     1.989833     1.982190     1.974546     1.966903     1.959260     1.951617     1.943974
      1.936331     1.928688     1.921045     1.913402     1.905759     1.898115     1.890472     1.882829     1.875186     1.867543
      1.859900     1.852257     1.844614     1.836971     1.829327     1.821684     1.814041     1.806398     1.798755     1.791112
      1.783469     1.775826     1.768183     1.760540     1.752896     1.745253     1.737610     1.729967     1.722324     1.714681
      1.707038     1.699395     1.691752     1.684108     1.676465     1.668822     1.661179     1.653536     1.645893     1.638250
      1.630607     1.622964     1.615321     1.607677     1.600034     1.592391     1.584748     1.577105     1.569462     1.561819
      1.554176     1.546533     1.538890     1.531246     1.523603     1.515960     1.508317     1.500674     1.493031     1.485388
      1.477745     1.470102     1.462458     1.454815     1.447172     1.439529     1.431886     1.424243     1.416600     1.408957
      1.401314     1.393671     1.386027     1.378384     1.370741     1.363098     1.355455     1.347812     1.340169     1.332526
      1.324883     1.317240     1.309596     1.301953     1.294310     1.286667     1.279024     1.271381     1.263738     1.256095
      1.248452     1.240808     1.233165     1.225522     1.217879     1.210236     1.202593     1.194950     1.187307     1.179664
      1.172021     1.164377     1.156734     1.149091     1.141448     1.133805     1.126162     1.118519     1.110876     1.103233
      1.095590     1.087946     1.080303     1.072660     1.065017     1.057374     1.049731     1.042088     1.034445     1.026802
      1.019158     1.011515     1.003872     0.996229     0.988586     0.980943     0.973300     0.965657     0.958014     0.950371
      0.942727     0.935084     0.927441     0.919798     0.912155     0.904512     0.896869     0.889226     0.881583     0.873940
      0.866296     0.858653     0.851010     0.843367     0.835724     0.828081     0.820438     0.812795     0.805152     0.797508
      0.789865     0.782222     0.774579     0.766936     0.759293     0.751650     0.744007     0.736364     0.728721     0.721077
      0.713434     0.705791     0.698148     0.690505     0.682862     0.675219     0.667576     0.659933     0.652290     0.644646
      0.637003     0.629360     0.621717     0.614074     0.606431     0.598788     0.591145     0.583502     0.575858     0.568215
      0.560572     0.552929     0.545286     0.537643     0.530000     0.522357     0.514714     0.507071     0.499427     0.491784
      0.484141     0.476498     0.468855     0.461212     0.453569     0.445925     0.438282     0.430639     0.422996     0.415353
      0.407710     0.400067     0.392424     0.384780     0.377137     0.369494     0.361851     0.354208     0.346565     0.338922
      0.331278     0.323635     0.315992     0.308349     0.300706     0.293063     0.285420     0.277777     0.270133     0.262490
      0.254847     0.247204     0.239561     0.231918     0.224275     0.216631     0.208988     0.201345
 NY phased data points follow
  -1.16733E+00 -1.11110E+00 -1.23672E+00 -8.22680E-01 -5.75978E-01  3.65063E-01 -1.38945E+00 -1.27872E-01 -1.14979E+00 -8.22903E-01
  -8.19852E-01 -7.85011E-01 -1.76341E+00 -9.12623E-01 -2.56381E+00 -9.78353E-01 -1.81836E+00 -1.12294E-01 -1.43040E+00 -3.37546E-01
  -6.58432E-01 -7.25550E-01 -1.84561E+00 -2.14120E+00 -1.05167E+00 -2.25181E+00 -1.02303E+00 -1.23278E+00 -1.83843E+00 -5.27815E-01
  -3.45973E+00  9.01401E-01 -1.68079E+00 -2.30095E+00 -4.46714E-01 -7.20808E-01 -9.34050E-01 -1.95822E+00 -2.95975E+00 -1.18904E+00
  -9.34748E-01 -8.31062E-01 -2.21462E+00 -1.53385E+00 -1.61883E+00 -1.68587E+00 -3.34482E+00 -2.53644E+00 -1.07663E+00 -6.38368E-01
  -1.40305E-01 -1.65073E+00 -2.09901E+00 -1.54716E+00 -3.20014E+00 -3.70400E-01 -1.22267E+00  6.23219E-01 -1.39247E+00 -4.76159E-01
  -1.99402E+00 -1.66134E+00 -1.76791E+00 -9.34637E-01 -2.72561E+00 -3.78231E-01 -9.88957E-01 -6.61328E-01 -2.26751E+00 -4.00113E+00
  -1.62432E+00 -9.70303E-01 -3.69711E-01 -1.59176E+00 -1.03906E+00 -1.55291E+00 -1.55151E+00 -1.33618E+00 -1.93010E+00 -4.58966E-01
  -2.27537E+00 -1.55124E+00 -1.07580E+00 -1.19172E+00 -1.29567E+00 -8.32197E-01 -1.52181E+00 -1.24324E+00 -8.82055E-01 -1.20734E+00
  -1.72839E+00 -1.81311E+00 -1.19299E+00 -1.66654E+00 -2.29929E+00 -1.92688E+00 -9.08746E-01 -1.03262E+00 -8.91867E-01 -5.72960E-01
  -2.54440E+00 -2.07557E+00 -9.53251E-01 -1.31487E+00 -1.13064E+00 -5.89435E-01 -1.57585E-01 -2.39474E+00 -2.05704E+00 -4.03554E-01
  -1.68052E+00 -6.57390E-01 -1.35606E+00 -1.23148E+00 -1.45703E+00  1.92751E-01 -1.40575E+00 -1.75241E+00 -1.09323E+00 -1.28395E+00
  -7.34024E-01  2.11005E-01 -3.38729E-01 -1.23544E+00 -1.52623E+00 -1.23813E-01 -1.84347E+00 -1.21102E+00 -2.18682E-02 -1.52150E+00
  -1.61754E+00 -5.42771E-01 -7.42377E-01 -1.27621E+00 -1.24294E+00 -1.64299E+00 -1.83603E+00 -1.33197E+00 -1.81743E+00 -1.20776E+00
  -1.69255E+00 -1.81801E+00 -2.61979E+00  2.13021E-01 -7.79031E-01  6.99585E-01 -1.58654E+00 -1.61229E+00 -1.29884E-01 -9.04234E-01
  -2.36879E+00 -1.81158E+00 -1.32029E+00 -1.72741E+00 -1.95617E+00 -9.19381E-02 -1.43075E+00 -1.90498E+00 -1.20413E+00 -1.29747E+00
  -2.96203E-01 -1.66989E+00 -1.64751E+00 -1.99744E+00 -5.69291E-01 -1.69152E+00 -2.90717E+00 -9.45265E-01 -6.28778E-01 -6.39887E-01
  -1.35392E+00 -1.22145E+00 -3.39669E+00 -1.42474E+00 -1.44269E+00 -8.83142E-01 -2.89260E+00 -1.64183E+00  2.11577E-01 -2.80169E+00
  -2.58660E+00 -1.02531E+00 -1.94290E+00 -1.71642E+00 -2.00107E+00 -1.94623E+00 -7.43674E-01 -8.28193E-01 -2.06617E+00 -1.47496E+00
  -3.98731E-01 -1.20292E+00 -2.05295E+00 -1.66588E+00 -1.19181E+00 -2.26827E+00 -2.40740E+00 -2.49013E+00 -2.04487E+00 -1.16866E+00
  -1.68801E+00 -1.05477E+00 -1.53182E+00 -9.44738E-01 -1.22688E+00 -1.32833E+00 -1.61646E+00 -1.41111E+00 -8.80868E-01 -3.81700E-01
  -1.65696E-02 -6.01229E-01 -5.37274E-01 -1.95579E+00 -7.44474E-01 -3.46407E-01 -9.80429E-01 -7.72007E-01 -8.36698E-01 -3.15050E+00
  -1.60996E+00 -2.55915E-01 -1.60896E+00 -1.47986E+00 -1.41074E+00 -1.64411E+00 -5.58199E-01  3.51098E-01 -1.50980E+00 -1.08047E+00
   6.00966E-02  6.30413E-01 -9.26011E-01  5.76879E-01 -1.06527E+00  1.93566E-01  8.48894E-01 -9.53344E-02 -5.92351E-01 -1.27993E+00
  -3.24249E-02 -4.92072E-01 -7.72423E-01 -8.83352E-01 -7.82930E-01  6.93857E-01 -4.21704E-01 -1.12788E+00  1.56132E+00 -5.16747E-01
   5.49790E-01  1.79602E+00  8.59204E-01  2.28581E+00  3.00651E-01  3.50407E-01 -4.98427E-01  6.65917E-01  2.25609E-02 -2.24669E-01
  -1.75083E+00  2.93108E-01 -4.04528E-01 -9.34272E-01 -4.31796E-01 -2.89570E-01 -1.60863E+00 -6.15618E-01 -2.01048E+00 -8.62726E-01
  -4.76897E-01 -8.95253E-01 -9.27959E-01  4.79695E-01  4.22299E-01  2.54603E-01  7.70489E-02 -7.86690E-01  7.37681E-01 -2.22186E-01
  -2.53610E-01 -6.10403E-02  3.81521E-01  6.34125E-01  5.15422E-01  1.98236E+00 -1.73195E+00 -1.50055E+00  1.47496E+00 -6.51646E-01
   4.75484E-01  2.29472E-01  2.04869E-01  1.96343E+00  1.81126E+00  1.73134E+00  1.51408E+00  2.15730E+00  1.59793E+00  2.74446E+00
   2.22927E+00  9.64339E-01  2.87231E+00  9.48577E-01  7.42596E-01  2.13302E+00  2.11052E+00  3.05420E+00  2.95134E+00  1.85884E+00
   2.80016E+00  1.96186E+00  2.57511E+00  1.32767E+00  1.86170E+00  3.36250E+00  4.24329E+00  1.87796E+00  2.05878E+00  1.53352E+00
   4.00428E+00  2.18033E+00  2.53176E+00  2.08151E+00  1.83876E+00  1.87136E+00  2.76860E+00  9.78535E-01  1.02073E+00  1.72645E+00
   2.21214E+00  1.56134E+00  1.38938E+00  5.52253E-01  2.10241E+00  2.54151E-01  1.16662E+00  4.02680E-01  3.31508E-01  1.19400E+00
  -8.32822E-01  1.43022E+00  7.29316E-01 -3.14448E-02  2.56324E-01  7.07044E-01  7.46443E-01 -7.43036E-01  9.73959E-01  1.34017E+00
   4.87062E-01  1.01561E+00  9.12572E-01  9.30055E-01  1.92273E-01  6.09415E-01  2.32159E+00  1.25653E+00  2.00352E+00  2.75989E+00
   3.35248E-01  1.35584E+00  2.49487E+00  2.23137E+00  1.56173E+00  1.72284E+00  1.49523E+00  1.63196E+00  1.27439E+00  6.18359E-01
   1.42686E+00  2.45297E-01  1.85285E+00  1.40536E+00  1.51654E+00  7.66933E-01  1.89906E+00  1.33691E+00 -2.64148E-01  2.19715E+00
   2.81758E+00  8.28969E-01  2.59539E+00  2.00113E+00  3.67160E-01  1.02146E+00  3.81028E-01  5.86630E-01  5.22803E-01  1.06529E+00
   2.23869E+00  1.11818E+00 -1.37340E-01 -3.87720E-01  1.05500E+00 -2.06867E-01  1.31693E+00  1.33825E+00 -9.78692E-02  1.01705E+00
   1.28408E+00  4.25120E-01  4.77125E-01 -1.19465E+00  2.53523E-01  2.27763E+00  1.20470E+00  8.93430E-01  1.42761E+00  8.10454E-01
  -1.52804E+00 -2.35963E-01  5.19605E-01 -1.53553E-01 -7.53327E-01  3.31028E-01  3.10190E-01  7.66537E-01 -1.15237E-01 -3.37647E-02
   7.53573E-01 -4.48304E-01 -5.44151E-01 -6.95245E-01 -4.23009E-01  1.94979E-01 -7.22213E-01  3.42772E-01 -6.87710E-01  2.77683E-01
   8.29242E-01 -1.42140E-01 -4.60859E-01  5.49811E-01  6.02961E-01  3.61286E-02 -1.42323E-01 -1.48355E+00 -4.97260E-02  4.89935E-01
   7.06435E-01  1.09249E+00  1.47174E-01 -7.00661E-01 -4.05047E-01 -1.33543E+00  1.91683E-01 -1.09325E+00 -4.12842E-01 -1.97301E-02
   8.63438E-01  1.09957E+00 -5.26732E-01 -6.16185E-01  7.06017E-02 -1.63292E-01  3.80993E-01 -1.33865E-01  5.80176E-01 -3.57554E-01
  -1.19472E+00 -1.72219E-01 -5.71263E-01 -1.23722E+00 -5.51502E-01  6.34192E-01 -9.03033E-01 -5.44480E-02  4.56135E-01 -6.63031E-01
  -5.36642E-01 -3.81835E-01 -5.30890E-01 -1.11722E+00 -5.59142E-01  1.11916E+00 -7.24758E-01 -4.42789E-01  1.64979E-01 -2.41838E-01
  -8.13081E-01 -7.16052E-01 -1.52144E+00 -1.15905E+00 -9.22466E-01 -3.73384E-01 -1.84238E+00  4.22055E-01 -8.89287E-01 -8.40466E-01
   1.40186E-01 -5.45167E-01 -1.16629E+00  8.57598E-02 -2.53623E+00 -1.06263E+00 -2.04657E-01 -1.46096E+00
 NY points of the fit to the data follow
  -1.26743E+00 -1.17121E+00 -1.19997E+00 -1.10056E+00 -1.14472E+00 -1.05150E+00 -1.10536E+00 -1.02417E+00 -1.07115E+00 -9.97158E-01
  -1.04848E+00 -9.98736E-01 -1.09215E+00 -1.06298E+00 -1.18893E+00 -1.13582E+00 -1.21227E+00 -1.11638E+00 -1.15170E+00 -1.04720E+00
  -1.09902E+00 -1.02646E+00 -1.11532E+00 -1.05135E+00 -1.11714E+00 -1.04468E+00 -1.07320E+00 -1.01180E+00 -1.02455E+00 -9.95675E-01
  -1.01661E+00 -1.01854E+00 -1.04840E+00 -1.06672E+00 -1.09748E+00 -1.11733E+00 -1.13985E+00 -1.15302E+00 -1.16101E+00 -1.16677E+00
  -1.16815E+00 -1.17670E+00 -1.19146E+00 -1.20991E+00 -1.23863E+00 -1.25623E+00 -1.27298E+00 -1.28084E+00 -1.28034E+00 -1.28812E+00
  -1.29331E+00 -1.31152E+00 -1.33249E+00 -1.35309E+00 -1.37333E+00 -1.38401E+00 -1.39278E+00 -1.39407E+00 -1.39702E+00 -1.39432E+00
  -1.39666E+00 -1.39292E+00 -1.39497E+00 -1.39113E+00 -1.39325E+00 -1.38968E+00 -1.39109E+00 -1.38786E+00 -1.38818E+00 -1.38507E+00
  -1.38200E+00 -1.37939E+00 -1.37449E+00 -1.37303E+00 -1.36739E+00 -1.36674E+00 -1.36055E+00 -1.36072E+00 -1.35475E+00 -1.35572E+00
  -1.35070E+00 -1.35216E+00 -1.34804E+00 -1.34917E+00 -1.34740E+00 -1.34830E+00 -1.34876E+00 -1.34957E+00 -1.35161E+00 -1.35139E+00
  -1.35396E+00 -1.35225E+00 -1.35420E+00 -1.35151E+00 -1.35279E+00 -1.34965E+00 -1.35027E+00 -1.34697E+00 -1.34659E+00 -1.34336E+00
  -1.34166E+00 -1.33876E+00 -1.33596E+00 -1.33364E+00 -1.33045E+00 -1.32832E+00 -1.32472E+00 -1.32221E+00 -1.31695E+00 -1.30930E+00
  -1.27761E+00 -1.22711E+00 -1.19544E+00 -1.11107E+00 -1.09704E+00 -9.88342E-01 -9.97802E-01 -8.69996E-01 -9.03758E-01 -7.60347E-01
  -8.23462E-01 -6.76759E-01 -7.73671E-01 -6.41773E-01 -7.69465E-01 -6.69328E-01 -8.12552E-01 -7.49014E-01 -8.89924E-01 -8.60320E-01
  -9.82831E-01 -9.78735E-01 -1.07192E+00 -1.08096E+00 -1.14441E+00 -1.15898E+00 -1.19728E+00 -1.21361E+00 -1.23315E+00 -1.24783E+00
  -1.24948E+00 -1.25479E+00 -1.24596E+00 -1.24181E+00 -1.23662E+00 -1.23222E+00 -1.23323E+00 -1.23145E+00 -1.23485E+00 -1.23327E+00
  -1.23793E+00 -1.23574E+00 -1.24174E+00 -1.23988E+00 -1.24970E+00 -1.24639E+00 -1.25677E+00 -1.25194E+00 -1.26145E+00 -1.25779E+00
  -1.26754E+00 -1.26386E+00 -1.27308E+00 -1.26828E+00 -1.27582E+00 -1.27021E+00 -1.27717E+00 -1.27228E+00 -1.27435E+00 -1.26925E+00
  -1.26611E+00 -1.26003E+00 -1.25128E+00 -1.24437E+00 -1.23045E+00 -1.22273E+00 -1.20261E+00 -1.19931E+00 -1.18567E+00 -1.18633E+00
  -1.19670E+00 -1.20009E+00 -1.23250E+00 -1.23119E+00 -1.27288E+00 -1.23960E+00 -1.26939E+00 -1.20104E+00 -1.22329E+00 -1.10875E+00
  -1.13091E+00 -1.00119E+00 -1.04361E+00 -9.49283E-01 -1.08388E+00 -9.77280E-01 -1.16390E+00 -1.02284E+00 -1.22329E+00 -1.02951E+00
  -1.17502E+00 -9.77625E-01 -1.11160E+00 -9.40541E-01 -1.07018E+00 -9.45542E-01 -1.08653E+00 -1.01797E+00 -1.08501E+00 -1.03881E+00
  -1.03512E+00 -1.01009E+00 -9.78616E-01 -9.88665E-01 -9.73382E-01 -1.01644E+00 -1.02754E+00 -1.05401E+00 -1.06943E+00 -1.05228E+00
  -1.07946E+00 -9.86760E-01 -1.01551E+00 -8.59082E-01 -9.01280E-01 -6.95008E-01 -7.83124E-01 -5.93386E-01 -6.95491E-01 -5.41250E-01
  -6.30065E-01 -5.25229E-01 -5.87000E-01 -5.48538E-01 -5.96499E-01 -6.40261E-01 -6.68078E-01 -7.72030E-01 -7.43448E-01 -8.40806E-01
  -6.65499E-01 -7.47325E-01 -4.93839E-01 -5.73593E-01 -2.76565E-01 -3.42032E-01 -2.17465E-02 -6.80597E-02  2.59586E-01  2.04713E-01
   4.93675E-01  4.16594E-01  6.30727E-01  5.29070E-01  6.51226E-01  5.31579E-01  5.63145E-01  4.32330E-01  3.91865E-01  2.67222E-01
   1.82380E-01  8.54109E-02 -1.56252E-02 -7.77292E-02 -1.81922E-01 -2.16433E-01 -3.09598E-01 -3.15665E-01 -3.82502E-01 -3.63374E-01
  -3.90447E-01 -3.64248E-01 -3.65331E-01 -3.50800E-01 -3.45730E-01 -3.42238E-01 -3.30484E-01 -3.27917E-01 -3.03359E-01 -2.97989E-01
  -2.64345E-01 -2.52491E-01 -2.11628E-01 -1.88526E-01 -1.38361E-01 -1.00098E-01 -3.62761E-02  2.14521E-02  1.03620E-01  1.84865E-01
   2.88204E-01  3.93173E-01  5.16930E-01  6.43279E-01  7.84281E-01  9.27742E-01  1.08100E+00  1.23448E+00  1.39176E+00  1.54489E+00
   1.69481E+00  1.83503E+00  1.96487E+00  2.07981E+00  2.17860E+00  2.25888E+00  2.31990E+00  2.36113E+00  2.38302E+00  2.38657E+00
   2.37330E+00  2.34561E+00  2.30566E+00  2.25663E+00  2.20099E+00  2.14173E+00  2.08117E+00  2.02153E+00  1.96427E+00  1.91067E+00
   1.86112E+00  1.81591E+00  1.77456E+00  1.73658E+00  1.70096E+00  1.66683E+00  1.63305E+00  1.59877E+00  1.56309E+00  1.52551E+00
   1.48561E+00  1.44346E+00  1.39916E+00  1.35335E+00  1.30664E+00  1.26006E+00  1.21456E+00  1.17138E+00  1.13154E+00  1.09627E+00
   1.06643E+00  1.04301E+00  1.02655E+00  1.01759E+00  1.01622E+00  1.02250E+00  1.03599E+00  1.05623E+00  1.08230E+00  1.11330E+00
   1.14791E+00  1.18492E+00  1.22277E+00  1.26013E+00  1.29538E+00  1.32725E+00  1.35430E+00  1.37549E+00  1.38971E+00  1.39633E+00
   1.39471E+00  1.38470E+00  1.36618E+00  1.33949E+00  1.30500E+00  1.26351E+00  1.21576E+00  1.16289E+00  1.10591E+00  1.04613E+00
   9.84672E-01  9.22885E-01  8.61858E-01  8.02860E-01  7.46846E-01  6.94912E-01  6.47810E-01  6.06413E-01  5.71234E-01  5.42895E-01
   5.21656E-01  5.07878E-01  5.01550E-01  5.02758E-01  5.11205E-01  5.26681E-01  5.48586E-01  5.76401E-01  6.09211E-01  6.46193E-01
   6.86149E-01  7.28001E-01  7.70344E-01  8.11955E-01  8.51358E-01  8.87344E-01  9.18545E-01  9.43954E-01  9.62496E-01  9.73538E-01
   9.76441E-01  9.71056E-01  9.57250E-01  9.35378E-01  9.05787E-01  8.69258E-01  8.26501E-01  7.78582E-01  7.26408E-01  6.71154E-01
   6.13747E-01  5.55307E-01  4.96638E-01  4.38686E-01  3.82046E-01  3.27427E-01  2.75179E-01  2.25770E-01  1.79322E-01  1.36091E-01
   9.60170E-02  5.91971E-02  2.54400E-02 -5.25898E-03 -3.31684E-02 -5.83467E-02 -8.10973E-02 -1.01496E-01 -1.19853E-01 -1.36238E-01
  -1.50947E-01 -1.64029E-01 -1.75760E-01 -1.86163E-01 -1.95490E-01 -2.03739E-01 -2.11136E-01 -2.17655E-01 -2.23503E-01 -2.28634E-01
  -2.33236E-01 -2.37247E-01 -2.40841E-01 -2.43943E-01 -2.46716E-01 -2.49073E-01 -2.51172E-01 -2.52916E-01 -2.54455E-01 -2.55689E-01
  -2.56759E-01 -2.57564E-01 -2.58240E-01 -2.58681E-01 -2.59021E-01 -2.59151E-01 -2.59204E-01 -2.59068E-01 -2.58871E-01 -2.58504E-01
  -2.58092E-01 -2.57523E-01 -2.56921E-01 -2.56176E-01 -2.55408E-01 -2.54506E-01 -2.53592E-01 -2.52552E-01 -2.51507E-01 -2.50344E-01
  -2.49183E-01 -2.47909E-01 -2.46643E-01 -2.45269E-01 -2.43909E-01 -2.42446E-01 -2.41000E-01 -2.39456E-01 -2.37932E-01 -2.36314E-01
  -2.34719E-01 -2.33032E-01 -2.31372E-01 -2.29621E-01 -2.27900E-01 -2.26091E-01 -2.24312E-01 -2.22448E-01 -2.20614E-01 -2.18696E-01
  -2.16809E-01 -2.14838E-01 -2.12898E-01 -2.10873E-01 -2.08877E-01 -2.06793E-01 -2.04735E-01 -2.02583E-01
 NY background values follow
    -1.583E+00   -1.580E+00   -1.577E+00   -1.575E+00   -1.572E+00   -1.569E+00   -1.567E+00   -1.564E+00   -1.561E+00   -1.559E+00
    -1.556E+00   -1.553E+00   -1.551E+00   -1.548E+00   -1.545E+00   -1.543E+00   -1.540E+00   -1.537E+00   -1.534E+00   -1.532E+00
    -1.529E+00   -1.526E+00   -1.524E+00   -1.521E+00   -1.518E+00   -1.516E+00   -1.513E+00   -1.510E+00   -1.508E+00   -1.505E+00
    -1.502E+00   -1.500E+00   -1.497E+00   -1.494E+00   -1.492E+00   -1.489E+00   -1.486E+00   -1.483E+00   -1.481E+00   -1.478E+00
    -1.475E+00   -1.473E+00   -1.470E+00   -1.467E+00   -1.465E+00   -1.462E+00   -1.459E+00   -1.457E+00   -1.454E+00   -1.451E+00
    -1.449E+00   -1.446E+00   -1.443E+00   -1.441E+00   -1.438E+00   -1.435E+00   -1.432E+00   -1.430E+00   -1.427E+00   -1.424E+00
    -1.422E+00   -1.419E+00   -1.416E+00   -1.414E+00   -1.411E+00   -1.408E+00   -1.406E+00   -1.403E+00   -1.400E+00   -1.398E+00
    -1.395E+00   -1.392E+00   -1.389E+00   -1.387E+00   -1.384E+00   -1.381E+00   -1.379E+00   -1.376E+00   -1.373E+00   -1.371E+00
    -1.368E+00   -1.365E+00   -1.363E+00   -1.360E+00   -1.357E+00   -1.355E+00   -1.352E+00   -1.349E+00   -1.347E+00   -1.344E+00
    -1.341E+00   -1.338E+00   -1.336E+00   -1.333E+00   -1.330E+00   -1.328E+00   -1.325E+00   -1.322E+00   -1.320E+00   -1.317E+00
    -1.314E+00   -1.312E+00   -1.309E+00   -1.306E+00   -1.304E+00   -1.301E+00   -1.298E+00   -1.296E+00   -1.293E+00   -1.290E+00
    -1.287E+00   -1.285E+00   -1.282E+00   -1.279E+00   -1.277E+00   -1.274E+00   -1.271E+00   -1.269E+00   -1.266E+00   -1.263E+00
    -1.261E+00   -1.258E+00   -1.255E+00   -1.253E+00   -1.250E+00   -1.247E+00   -1.244E+00   -1.242E+00   -1.239E+00   -1.236E+00
    -1.234E+00   -1.231E+00   -1.228E+00   -1.226E+00   -1.223E+00   -1.220E+00   -1.218E+00   -1.215E+00   -1.212E+00   -1.210E+00
    -1.207E+00   -1.204E+00   -1.202E+00   -1.199E+00   -1.196E+00   -1.193E+00   -1.191E+00   -1.188E+00   -1.185E+00   -1.183E+00
    -1.180E+00   -1.177E+00   -1.175E+00   -1.172E+00   -1.169E+00   -1.167E+00   -1.164E+00   -1.161E+00   -1.159E+00   -1.156E+00
    -1.153E+00   -1.151E+00   -1.148E+00   -1.145E+00   -1.142E+00   -1.140E+00   -1.137E+00   -1.134E+00   -1.132E+00   -1.129E+00
    -1.126E+00   -1.124E+00   -1.121E+00   -1.118E+00   -1.116E+00   -1.113E+00   -1.110E+00   -1.108E+00   -1.105E+00   -1.102E+00
    -1.099E+00   -1.097E+00   -1.094E+00   -1.091E+00   -1.089E+00   -1.086E+00   -1.083E+00   -1.081E+00   -1.078E+00   -1.075E+00
    -1.073E+00   -1.070E+00   -1.067E+00   -1.065E+00   -1.062E+00   -1.059E+00   -1.057E+00   -1.054E+00   -1.051E+00   -1.048E+00
    -1.046E+00   -1.043E+00   -1.040E+00   -1.038E+00   -1.035E+00   -1.032E+00   -1.030E+00   -1.027E+00   -1.024E+00   -1.022E+00
    -1.019E+00   -1.016E+00   -1.014E+00   -1.011E+00   -1.008E+00   -1.005E+00   -1.003E+00   -1.000E+00   -9.974E-01   -9.948E-01
    -9.921E-01   -9.894E-01   -9.867E-01   -9.840E-01   -9.813E-01   -9.786E-01   -9.760E-01   -9.733E-01   -9.706E-01   -9.679E-01
    -9.652E-01   -9.625E-01   -9.598E-01   -9.572E-01   -9.545E-01   -9.518E-01   -9.491E-01   -9.464E-01   -9.437E-01   -9.411E-01
    -9.384E-01   -9.357E-01   -9.330E-01   -9.303E-01   -9.276E-01   -9.249E-01   -9.223E-01   -9.196E-01   -9.169E-01   -9.142E-01
    -9.115E-01   -9.088E-01   -9.061E-01   -9.035E-01   -9.008E-01   -8.981E-01   -8.954E-01   -8.927E-01   -8.900E-01   -8.873E-01
    -8.847E-01   -8.820E-01   -8.793E-01   -8.766E-01   -8.739E-01   -8.712E-01   -8.685E-01   -8.659E-01   -8.632E-01   -8.605E-01
    -8.578E-01   -8.551E-01   -8.524E-01   -8.498E-01   -8.471E-01   -8.444E-01   -8.417E-01   -8.390E-01   -8.363E-01   -8.336E-01
    -8.310E-01   -8.283E-01   -8.256E-01   -8.229E-01   -8.202E-01   -8.175E-01   -8.148E-01   -8.122E-01   -8.095E-01   -8.068E-01
    -8.041E-01   -8.014E-01   -7.987E-01   -7.960E-01   -7.934E-01   -7.907E-01   -7.880E-01   -7.853E-01   -7.826E-01   -7.799E-01
    -7.773E-01   -7.746E-01   -7.719E-01   -7.692E-01   -7.665E-01   -7.638E-01   -7.611E-01   -7.585E-01   -7.558E-01   -7.531E-01
    -7.504E-01   -7.477E-01   -7.450E-01   -7.423E-01   -7.397E-01   -7.370E-01   -7.343E-01   -7.316E-01   -7.289E-01   -7.262E-01
    -7.235E-01   -7.209E-01   -7.182E-01   -7.155E-01   -7.128E-01   -7.101E-01   -7.074E-01   -7.048E-01   -7.021E-01   -6.994E-01
    -6.967E-01   -6.940E-01   -6.913E-01   -6.886E-01   -6.860E-01   -6.833E-01   -6.806E-01   -6.779E-01   -6.752E-01   -6.725E-01
    -6.698E-01   -6.672E-01   -6.645E-01   -6.618E-01   -6.591E-01   -6.564E-01   -6.537E-01   -6.510E-01   -6.484E-01   -6.457E-01
    -6.430E-01   -6.403E-01   -6.376E-01   -6.349E-01   -6.323E-01   -6.296E-01   -6.269E-01   -6.242E-01   -6.215E-01   -6.188E-01
    -6.161E-01   -6.135E-01   -6.108E-01   -6.081E-01   -6.054E-01   -6.027E-01   -6.000E-01   -5.973E-01   -5.947E-01   -5.920E-01
    -5.893E-01   -5.866E-01   -5.839E-01   -5.812E-01   -5.786E-01   -5.759E-01   -5.732E-01   -5.705E-01   -5.678E-01   -5.651E-01
    -5.624E-01   -5.598E-01   -5.571E-01   -5.544E-01   -5.517E-01   -5.490E-01   -5.463E-01   -5.436E-01   -5.410E-01   -5.383E-01
    -5.356E-01   -5.329E-01   -5.302E-01   -5.275E-01   -5.249E-01   -5.222E-01   -5.195E-01   -5.168E-01   -5.141E-01   -5.114E-01
    -5.087E-01   -5.061E-01   -5.034E-01   -5.007E-01   -4.980E-01   -4.953E-01   -4.926E-01   -4.899E-01   -4.873E-01   -4.846E-01
    -4.819E-01   -4.792E-01   -4.765E-01   -4.738E-01   -4.712E-01   -4.685E-01   -4.658E-01   -4.631E-01   -4.604E-01   -4.577E-01
    -4.550E-01   -4.524E-01   -4.497E-01   -4.470E-01   -4.443E-01   -4.416E-01   -4.389E-01   -4.363E-01   -4.336E-01   -4.309E-01
    -4.282E-01   -4.255E-01   -4.228E-01   -4.201E-01   -4.175E-01   -4.148E-01   -4.121E-01   -4.094E-01   -4.067E-01   -4.040E-01
    -4.013E-01   -3.987E-01   -3.960E-01   -3.933E-01   -3.906E-01   -3.879E-01   -3.852E-01   -3.826E-01   -3.799E-01   -3.772E-01
    -3.745E-01   -3.718E-01   -3.691E-01   -3.664E-01   -3.638E-01   -3.611E-01   -3.584E-01   -3.557E-01   -3.530E-01   -3.503E-01
    -3.476E-01   -3.450E-01   -3.423E-01   -3.396E-01   -3.369E-01   -3.342E-01   -3.315E-01   -3.289E-01   -3.262E-01   -3.235E-01
    -3.208E-01   -3.181E-01   -3.154E-01   -3.127E-01   -3.101E-01   -3.074E-01   -3.047E-01   -3.020E-01   -2.993E-01   -2.966E-01
    -2.940E-01   -2.913E-01   -2.886E-01   -2.859E-01   -2.832E-01   -2.805E-01   -2.778E-01   -2.752E-01   -2.725E-01   -2.698E-01
    -2.671E-01   -2.644E-01   -2.617E-01   -2.590E-01   -2.564E-01   -2.537E-01   -2.510E-01   -2.483E-01
 Asp      Conc. = 5.01E+00
