 LCModel (Version 6.3-1L) Copyright: S.W. Provencher.          Ref.: Magn. Reson. Med. 30:672-679 (1993).                
 Slice#1 Row#6 Col#11  K_02_press_1_raw_act
 36 lines in following concentration table = NCONC+1
    Conc.  %SD /Cr+PCr  Metabolite                                         
  304.012  46%   0.274 Ala                                                 
    0.000 999%   0.000 Asp                                                 
    0.000 999%   0.000 Cr                                                  
 1.11E+03   5%   1.000 PCr                                                 
    0.000 999%   0.000 GABA                                                
   35.657 401% 3.2E-02 Glc                                                 
  460.834  62%   0.416 Gln                                                 
 1.37E+03  23%   1.233 Glu                                                 
  350.461   7%   0.316 GPC                                                 
    0.000 999%   0.000 PCh                                                 
  243.878  34%   0.220 GSH                                                 
  685.584  39%   0.619 Ins                                                 
   54.223 279% 4.9E-02 Lac                                                 
 2.55E+03   7%   2.302 NAA                                                 
  130.230 153%   0.118 NAAG                                                
   86.993  33% 7.9E-02 Scyllo                                              
  339.246  58%   0.306 Tau                                                 
  807.416  13%   0.729 -CrCH2                                              
  350.461   7%   0.316 GPC+PCh                                             
 2.68E+03   4%   2.420 NAA+NAAG                                            
 1.11E+03   5%   1.000 Cr+PCr                                              
 1.83E+03  26%   1.649 Glu+Gln                                             
  370.171  93%   0.334 Lip13a                                              
    0.000 999%   0.000 Lip13b                                              
    0.000 999%   0.000 Lip09                                               
 1.94E+03   9%   1.750 MM09                                                
   87.575 144% 7.9E-02 Lip20                                               
 3.65E+03  10%   3.295 MM20                                                
  699.512  25%   0.631 MM12                                                
 1.80E+03  21%   1.622 MM14                                                
 1.98E+03  15%   1.786 MM17                                                
  370.171  93%   0.334 Lip13a+Lip13b                                       
 2.87E+03  12%   2.587 MM14+Lip13a+Lip13b+MM12                             
 1.94E+03   9%   1.750 MM09+Lip09                                          
 3.74E+03  10%   3.374 MM20+Lip20                                          
   6 lines in following misc. output table
  FWHM = 0.069 ppm    S/N =  12                                            
  Data shift = 0.015 ppm                                                   
  Ph: -20 deg      -2.7 deg/ppm                                            
  alphaB,S = 8.5E+01,   1.7E+02                                            
   14 spline knots.   Ns = 8(1)                                            
   2 inflections.     1 extrema                                            
  498 points on ppm-axis = NY
      4.000000     3.992357     3.984714     3.977070     3.969427     3.961784     3.954141     3.946497     3.938854     3.931211
      3.923568     3.915925     3.908281     3.900638     3.892995     3.885352     3.877708     3.870065     3.862422     3.854779
      3.847136     3.839492     3.831849     3.824206     3.816563     3.808919     3.801276     3.793633     3.785990     3.778347
      3.770703     3.763060     3.755417     3.747774     3.740130     3.732487     3.724844     3.717201     3.709558     3.701914
      3.694271     3.686628     3.678985     3.671341     3.663698     3.656055     3.648412     3.640769     3.633125     3.625482
      3.617839     3.610196     3.602552     3.594909     3.587266     3.579623     3.571980     3.564336     3.556693     3.549050
      3.541407     3.533763     3.526120     3.518477     3.510834     3.503191     3.495547     3.487904     3.480261     3.472618
      3.464974     3.457331     3.449688     3.442045     3.434402     3.426758     3.419115     3.411472     3.403829     3.396185
      3.388542     3.380899     3.373256     3.365613     3.357969     3.350326     3.342683     3.335040     3.327396     3.319753
      3.312110     3.304467     3.296824     3.289180     3.281537     3.273894     3.266251     3.258607     3.250964     3.243321
      3.235678     3.228034     3.220391     3.212748     3.205105     3.197462     3.189818     3.182175     3.174532     3.166889
      3.159245     3.151602     3.143959     3.136316     3.128673     3.121029     3.113386     3.105743     3.098100     3.090456
      3.082813     3.075170     3.067527     3.059884     3.052240     3.044597     3.036954     3.029311     3.021667     3.014024
      3.006381     2.998738     2.991095     2.983451     2.975808     2.968165     2.960522     2.952878     2.945235     2.937592
      2.929949     2.922306     2.914662     2.907019     2.899376     2.891733     2.884089     2.876446     2.868803     2.861160
      2.853517     2.845873     2.838230     2.830587     2.822944     2.815300     2.807657     2.800014     2.792371     2.784728
      2.777084     2.769441     2.761798     2.754155     2.746511     2.738868     2.731225     2.723582     2.715939     2.708295
      2.700652     2.693009     2.685366     2.677722     2.670079     2.662436     2.654793     2.647150     2.639506     2.631863
      2.624220     2.616577     2.608933     2.601290     2.593647     2.586004     2.578361     2.570717     2.563074     2.555431
      2.547788     2.540144     2.532501     2.524858     2.517215     2.509572     2.501928     2.494285     2.486642     2.478999
      2.471355     2.463712     2.456069     2.448426     2.440783     2.433139     2.425496     2.417853     2.410210     2.402566
      2.394923     2.387280     2.379637     2.371994     2.364350     2.356707     2.349064     2.341421     2.333777     2.326134
      2.318491     2.310848     2.303205     2.295561     2.287918     2.280275     2.272632     2.264988     2.257345     2.249702
      2.242059     2.234416     2.226772     2.219129     2.211486     2.203843     2.196199     2.188556     2.180913     2.173270
      2.165627     2.157983     2.150340     2.142697     2.135054     2.127410     2.119767     2.112124     2.104481     2.096838
      2.089194     2.081551     2.073908     2.066265     2.058621     2.050978     2.043335     2.035692     2.028049     2.020405
      2.012762     2.005119     1.997476     1.989833     1.982190     1.974546     1.966903     1.959260     1.951617     1.943974
      1.936331     1.928688     1.921045     1.913402     1.905759     1.898115     1.890472     1.882829     1.875186     1.867543
      1.859900     1.852257     1.844614     1.836971     1.829327     1.821684     1.814041     1.806398     1.798755     1.791112
      1.783469     1.775826     1.768183     1.760540     1.752896     1.745253     1.737610     1.729967     1.722324     1.714681
      1.707038     1.699395     1.691752     1.684108     1.676465     1.668822     1.661179     1.653536     1.645893     1.638250
      1.630607     1.622964     1.615321     1.607677     1.600034     1.592391     1.584748     1.577105     1.569462     1.561819
      1.554176     1.546533     1.538890     1.531246     1.523603     1.515960     1.508317     1.500674     1.493031     1.485388
      1.477745     1.470102     1.462458     1.454815     1.447172     1.439529     1.431886     1.424243     1.416600     1.408957
      1.401314     1.393671     1.386027     1.378384     1.370741     1.363098     1.355455     1.347812     1.340169     1.332526
      1.324883     1.317240     1.309596     1.301953     1.294310     1.286667     1.279024     1.271381     1.263738     1.256095
      1.248452     1.240808     1.233165     1.225522     1.217879     1.210236     1.202593     1.194950     1.187307     1.179664
      1.172021     1.164377     1.156734     1.149091     1.141448     1.133805     1.126162     1.118519     1.110876     1.103233
      1.095590     1.087946     1.080303     1.072660     1.065017     1.057374     1.049731     1.042088     1.034445     1.026802
      1.019158     1.011515     1.003872     0.996229     0.988586     0.980943     0.973300     0.965657     0.958014     0.950371
      0.942727     0.935084     0.927441     0.919798     0.912155     0.904512     0.896869     0.889226     0.881583     0.873940
      0.866296     0.858653     0.851010     0.843367     0.835724     0.828081     0.820438     0.812795     0.805152     0.797508
      0.789865     0.782222     0.774579     0.766936     0.759293     0.751650     0.744007     0.736364     0.728721     0.721077
      0.713434     0.705791     0.698148     0.690505     0.682862     0.675219     0.667576     0.659933     0.652290     0.644646
      0.637003     0.629360     0.621717     0.614074     0.606431     0.598788     0.591145     0.583502     0.575858     0.568215
      0.560572     0.552929     0.545286     0.537643     0.530000     0.522357     0.514714     0.507071     0.499427     0.491784
      0.484141     0.476498     0.468855     0.461212     0.453569     0.445925     0.438282     0.430639     0.422996     0.415353
      0.407710     0.400067     0.392424     0.384780     0.377137     0.369494     0.361851     0.354208     0.346565     0.338922
      0.331278     0.323635     0.315992     0.308349     0.300706     0.293063     0.285420     0.277777     0.270133     0.262490
      0.254847     0.247204     0.239561     0.231918     0.224275     0.216631     0.208988     0.201345
 NY phased data points follow
   9.23441E+00  5.68483E+00  7.03870E+00  5.77963E+00  9.90101E+00  1.06137E+01  8.13415E+00  7.60146E+00  1.19381E+01  1.41788E+01
   4.81924E+00  1.08470E+01  8.99608E+00  7.33849E+00  1.34761E+01  6.71034E+00  5.21312E+00  4.26976E+00  4.49434E+00  6.43005E+00
   4.34121E+00  7.13176E+00  7.59278E+00  1.00952E+01  5.14112E+00  8.12466E+00  4.14994E+00  3.45462E+00  8.04040E+00  6.37604E+00
   6.15499E+00  9.08849E+00  7.28325E+00  8.39178E+00  6.48115E+00  6.79718E+00  9.77247E+00  4.16920E+00  1.14147E+01  3.91103E+00
   1.20148E+01  1.08430E+01  1.01786E+01  1.01467E+01  6.27273E+00  1.00696E+01  1.19825E+01  4.94361E+00  6.75274E+00  1.27740E+01
   1.03827E+01  8.80983E+00  8.68593E+00  9.19375E+00  9.55003E+00  1.26693E+01  1.06255E+01  5.04795E+00  8.65705E+00  4.20311E+00
   4.07318E+00  7.06590E+00  4.55896E+00  4.48743E+00  5.32168E+00  5.04124E+00  3.94368E+00  3.95281E+00  6.18298E+00  6.50120E+00
   5.61863E+00  1.80258E+00  6.35676E+00  2.15967E+00  5.96141E+00  3.89191E+00  4.88380E+00  6.31808E+00  2.40229E+00  3.16907E+00
   6.28149E+00  3.72855E+00  7.39202E+00  2.34070E+00  3.02629E+00  5.98953E+00  6.55545E+00  7.70325E+00  7.27494E+00  1.01962E+01
   1.13803E+01  4.17793E+00  2.90972E+00  9.73118E+00  1.13863E+01  9.39995E+00  1.06352E+01  1.50477E+01  1.50411E+01  2.14669E+01
   2.45863E+01  3.26988E+01  3.54929E+01  3.18194E+01  2.64231E+01  3.25795E+01  2.02388E+01  1.28664E+01  1.16353E+01  1.24293E+01
   1.05834E+01  9.14153E+00  4.70104E+00  1.07818E+01  6.64048E+00  1.02234E+01  1.01360E+01  7.88972E+00  6.59199E+00  1.11839E+01
   8.49008E+00  1.48183E+01  1.54855E+01  1.98094E+01  2.69147E+01  3.14877E+01  3.40191E+01  3.64274E+01  4.24657E+01  3.53724E+01
   2.85226E+01  2.48167E+01  2.08622E+01  1.59355E+01  6.09424E+00  9.50488E+00  7.47451E+00  8.37639E+00  9.15608E+00  9.02497E+00
   6.71641E+00  8.10414E+00  7.19315E+00  1.00539E+01  7.28857E+00  6.51986E+00  8.31591E+00  5.57072E+00  5.99432E+00  6.52099E+00
   5.16449E+00  5.77839E+00  7.07865E+00  3.31644E+00  6.79467E+00  2.95289E+00  7.83841E+00  9.58042E+00  3.66307E+00  5.34573E+00
   5.79155E+00  5.75953E+00  6.58914E+00  8.29878E+00  6.94898E+00  1.67234E+00 -1.29137E+00  2.46543E-01 -4.18510E+00 -2.82565E-01
  -8.13278E+00 -9.52593E+00 -9.31906E+00 -1.13086E+01 -1.12959E+01 -1.01068E+01 -6.88874E+00 -1.13178E+01 -6.68134E+00 -4.62639E+00
  -6.25720E+00 -8.18165E+00 -5.91726E+00 -6.53398E+00 -4.57974E+00 -7.28701E+00 -2.71966E+00 -5.07714E+00  4.51156E+00  2.77014E+00
   1.62332E+00  2.05430E+00 -8.18840E-01  1.27028E+00 -1.34986E+00 -3.70712E-01 -3.51152E+00 -2.47599E+00 -5.93734E+00 -3.79315E+00
  -3.96299E+00  2.29656E+00 -2.83785E+00 -1.61457E+00  4.38267E+00  8.17286E+00  4.57407E+00  6.84343E+00  6.58964E+00  6.56337E+00
   5.85720E+00  6.08294E+00  5.91415E+00  7.68386E+00  1.13159E+01  1.59026E+01  1.80241E+01  1.54236E+01  1.26584E+01  9.87519E+00
   4.06413E+00  7.12572E+00  1.31033E+00  3.37876E+00  5.54244E+00  3.67256E+00  1.20116E+01  5.42500E+00  1.50281E+01  1.22730E+01
   1.38830E+01  1.30232E+01  1.07115E+01  9.30861E+00  1.19885E+01  8.87102E+00  1.45103E+01  6.94914E+00  1.16015E+01  9.85391E+00
   8.18310E+00  1.00425E+01  9.62477E+00  1.06886E+01  1.14061E+01  1.11735E+01  1.31640E+01  1.59821E+01  1.97305E+01  1.65682E+01
   2.20722E+01  2.19596E+01  2.27623E+01  2.64436E+01  3.65686E+01  4.25066E+01  5.32070E+01  6.38448E+01  7.29542E+01  8.44983E+01
   9.01381E+01  8.81603E+01  8.56057E+01  7.37872E+01  6.04125E+01  4.37174E+01  3.05364E+01  2.84772E+01  2.19013E+01  1.22849E+01
   9.40818E+00  1.31451E+01  7.91574E+00  8.38050E+00  6.53798E+00  7.15613E+00  4.45345E+00  2.72571E+00  7.72000E+00  6.99101E+00
   9.52312E+00  3.92875E+00  5.35488E+00  6.55492E+00  7.49335E+00  7.86997E+00  3.82387E+00  1.05348E+01  7.61926E+00  9.24072E+00
   9.29092E+00  1.10633E+01  7.17142E+00  8.48884E+00  9.60215E+00  1.22831E+01  7.49598E+00  9.36275E+00  5.71300E+00  3.03634E+00
   1.41358E+01  9.71715E+00  1.70774E+01  1.46120E+01  1.89553E+01  1.56809E+01  1.49153E+01  1.56837E+01  1.23542E+01  1.30279E+01
   1.46577E+01  1.62576E+01  1.90314E+01  1.87315E+01  1.63035E+01  1.63850E+01  1.86751E+01  1.99922E+01  1.67677E+01  1.46866E+01
   1.69116E+01  1.68837E+01  1.44792E+01  1.34308E+01  1.04128E+01  1.40780E+01  1.28922E+01  1.05294E+01  9.71933E+00  1.11554E+01
   8.34503E+00  1.09763E+01  1.13958E+01  8.67080E+00  1.13818E+01  9.06820E+00  7.75739E+00  9.27369E+00  9.16111E+00  1.44556E+01
   1.41769E+01  1.49373E+01  1.39184E+01  1.27222E+01  9.70588E+00  1.40451E+01  1.32191E+01  9.83005E+00  1.24095E+01  1.22047E+01
   8.06837E+00  1.06337E+01  4.81497E+00  5.17481E+00  1.26173E+01  4.63685E+00  6.62504E+00  7.29174E+00  8.54630E+00  4.52006E+00
   7.94408E+00  6.67463E+00  3.85426E+00  7.07193E+00  9.20113E+00  8.77570E+00  1.24065E+01  7.30468E+00  9.81300E+00  8.63304E+00
   8.31888E+00  8.55646E+00  8.12314E+00  1.01147E+01  8.89777E+00  6.01106E+00  8.14632E+00  7.91521E+00  4.66439E+00  7.19198E+00
   2.84330E+00  5.98364E+00  5.01412E+00  7.48414E+00  9.68294E+00  1.72951E+00  9.15077E+00  6.21448E+00  5.09755E+00  8.13391E+00
   5.47398E+00  1.13946E+01  8.47157E+00  5.87056E+00  1.09014E+01  1.50259E+01  1.06990E+01  1.41876E+01  1.18590E+01  9.03455E+00
   1.43908E+01  1.19900E+01  1.34397E+01  1.27802E+01  1.15707E+01  1.21147E+01  1.26487E+01  1.78657E+01  1.79218E+01  1.20694E+01
   1.84625E+01  1.66856E+01  1.04380E+01  1.38532E+01  1.11255E+01  9.62613E+00  1.38792E+01  8.53995E+00  5.51544E+00  7.66173E+00
   9.44549E+00  1.19071E+00  4.14831E+00  7.30657E+00  1.10216E+00  1.46388E+00 -2.67417E+00 -2.70916E-01  4.13511E+00  5.68553E-01
   2.58739E+00  6.42110E-01 -1.24472E+00 -6.86457E-01  3.66610E+00  2.19708E+00 -1.34219E+00  2.04481E+00  2.87321E+00  3.85182E+00
   3.35773E+00 -3.43867E-01  3.34041E+00  1.93063E+00  4.92608E-01  3.68604E+00 -1.90097E+00  1.02712E+00 -1.72636E+00 -1.24513E-01
   2.10197E+00  2.08712E+00  2.71423E+00  5.04726E+00  3.18190E+00  4.92876E+00 -1.49341E+00 -1.32391E+00  2.49575E+00  5.28074E-01
   1.42694E+00 -1.69990E+00 -9.95261E-01 -2.57785E+00  5.78824E+00  1.53578E+00  1.20879E+00 -9.57179E-01 -1.34304E+00  1.16198E+00
   4.08659E+00  2.69169E+00 -1.38756E+00  1.52744E+00 -1.52761E+00  1.84680E+00 -2.42009E+00  1.13307E+00 -1.72741E+00  2.84098E+00
   9.10530E-01 -1.72823E+00  1.66821E+00  3.08202E-01  1.80057E+00  3.08018E+00  5.10418E-01 -1.11998E+00 -1.91717E+00 -9.62508E-01
   2.42114E-01  6.41637E-02  1.53122E+00  6.49201E-01  1.64491E+00 -9.40911E-01 -5.81824E+00 -3.17186E+00
 NY points of the fit to the data follow
   5.30156E+00  5.46749E+00  5.87465E+00  6.50507E+00  7.32967E+00  8.31467E+00  9.38024E+00  1.03682E+01  1.10861E+01  1.13844E+01
   1.12023E+01  1.05929E+01  9.70641E+00  8.75339E+00  7.92542E+00  7.28855E+00  6.79164E+00  6.41667E+00  6.21116E+00  6.15525E+00
   6.09008E+00  6.01440E+00  6.04460E+00  6.13398E+00  6.22189E+00  6.34968E+00  6.59794E+00  7.03876E+00  7.66262E+00  8.45366E+00
   9.34278E+00  1.01849E+01  1.07742E+01  1.09285E+01  1.05724E+01  9.79552E+00  8.75162E+00  7.62723E+00  6.60505E+00  5.92886E+00
   5.78125E+00  6.06802E+00  6.61322E+00  7.30953E+00  8.07920E+00  8.82455E+00  9.42205E+00  9.78296E+00  9.81946E+00  9.46418E+00
   8.73696E+00  7.79435E+00  6.84198E+00  6.03923E+00  5.47364E+00  5.15798E+00  5.04593E+00  5.09419E+00  5.26640E+00  5.49268E+00
   5.66456E+00  5.73165E+00  5.67257E+00  5.49838E+00  5.28255E+00  5.09933E+00  4.98379E+00  4.96492E+00  5.05428E+00  5.21235E+00
   5.39533E+00  5.57715E+00  5.73757E+00  5.85338E+00  5.90935E+00  5.87424E+00  5.71471E+00  5.44651E+00  5.17021E+00  5.03742E+00
   5.04694E+00  5.20756E+00  5.55799E+00  6.07042E+00  6.65265E+00  7.18420E+00  7.51762E+00  7.53463E+00  7.22907E+00  6.66341E+00
   5.94408E+00  5.24896E+00  4.73770E+00  4.63497E+00  5.53678E+00  7.48431E+00  1.01210E+01  1.34050E+01  1.73499E+01  2.18354E+01
   2.64364E+01  3.03804E+01  3.28019E+01  3.31162E+01  3.12085E+01  2.74335E+01  2.25794E+01  1.77065E+01  1.36597E+01  1.06105E+01
   8.26370E+00  6.53450E+00  5.63100E+00  5.28457E+00  5.10474E+00  5.01118E+00  4.99569E+00  5.10787E+00  5.70082E+00  7.41491E+00
   1.00058E+01  1.31739E+01  1.69473E+01  2.14231E+01  2.64352E+01  3.14049E+01  3.54109E+01  3.75206E+01  3.72151E+01  3.45163E+01
   2.99564E+01  2.45306E+01  1.93755E+01  1.51671E+01  1.18706E+01  9.22798E+00  7.34351E+00  6.41038E+00  6.01541E+00  5.88296E+00
   5.90464E+00  5.97657E+00  6.01229E+00  5.97215E+00  5.84407E+00  5.63094E+00  5.36293E+00  5.07639E+00  4.79731E+00  4.54290E+00
   4.31969E+00  4.13389E+00  3.97213E+00  3.77089E+00  3.53477E+00  3.29634E+00  3.07255E+00  2.87694E+00  2.65137E+00  2.37118E+00
   2.08664E+00  1.87317E+00  1.77040E+00  1.76136E+00  1.77622E+00  1.71874E+00  1.50332E+00  1.08826E+00  4.95465E-01 -1.50166E-01
  -7.03249E-01 -1.15987E+00 -1.56265E+00 -1.96768E+00 -2.32083E+00 -2.51883E+00 -2.55218E+00 -2.46171E+00 -2.31308E+00 -2.19200E+00
  -2.09346E+00 -1.98205E+00 -1.84089E+00 -1.61643E+00 -1.24019E+00 -6.98422E-01 -2.84229E-02  7.83367E-01  1.75929E+00  2.83074E+00
   3.80507E+00  4.50981E+00  4.87872E+00  4.94548E+00  4.81115E+00  4.61057E+00  4.46115E+00  4.41893E+00  4.56861E+00  4.93489E+00
   5.46568E+00  6.09346E+00  6.63215E+00  6.92383E+00  6.83393E+00  6.24475E+00  5.21874E+00  3.95004E+00  2.73580E+00  1.87375E+00
   1.50711E+00  1.75113E+00  2.63864E+00  4.05800E+00  5.66523E+00  6.97550E+00  7.65606E+00  7.57616E+00  6.69770E+00  5.15906E+00
   3.30923E+00  1.70841E+00  8.30664E-01  8.33606E-01  1.66541E+00  3.16430E+00  5.07843E+00  6.99710E+00  8.49720E+00  9.47653E+00
   1.00543E+01  1.03849E+01  1.05612E+01  1.06731E+01  1.08630E+01  1.11605E+01  1.15178E+01  1.18808E+01  1.21941E+01  1.24064E+01
   1.25251E+01  1.25893E+01  1.26799E+01  1.29155E+01  1.33561E+01  1.39859E+01  1.47373E+01  1.55604E+01  1.64343E+01  1.72935E+01
   1.81714E+01  1.94787E+01  2.27876E+01  2.86256E+01  3.58615E+01  4.41073E+01  5.34918E+01  6.39363E+01  7.45657E+01  8.36414E+01
   8.90438E+01  8.92382E+01  8.38210E+01  7.35266E+01  6.02106E+01  4.66058E+01  3.51159E+01  2.63757E+01  1.96627E+01  1.46011E+01
   1.17078E+01  1.05026E+01  9.80630E+00  9.30372E+00  8.91605E+00  8.58758E+00  8.26729E+00  7.94113E+00  7.60397E+00  7.26707E+00
   6.95224E+00  6.67603E+00  6.44263E+00  6.25756E+00  6.12835E+00  6.05425E+00  6.02710E+00  6.04294E+00  6.10575E+00  6.22324E+00
   6.39972E+00  6.63670E+00  6.93790E+00  7.30580E+00  7.73854E+00  8.23244E+00  8.78335E+00  9.38678E+00  1.00365E+01  1.07243E+01
   1.14393E+01  1.21680E+01  1.28947E+01  1.36020E+01  1.42707E+01  1.48827E+01  1.54214E+01  1.58733E+01  1.62274E+01  1.64773E+01
   1.66203E+01  1.66586E+01  1.65982E+01  1.64497E+01  1.62274E+01  1.59499E+01  1.56390E+01  1.53220E+01  1.50376E+01  1.48466E+01
   1.47372E+01  1.46189E+01  1.44796E+01  1.43226E+01  1.41127E+01  1.37651E+01  1.31743E+01  1.23273E+01  1.13578E+01  1.03689E+01
   9.48406E+00  8.87015E+00  8.69238E+00  9.01910E+00  9.75915E+00  1.07146E+01  1.16946E+01  1.25553E+01  1.31392E+01  1.33411E+01
   1.32085E+01  1.28666E+01  1.24472E+01  1.20014E+01  1.15243E+01  1.10436E+01  1.06000E+01  1.01731E+01  9.75635E+00  9.35748E+00
   8.99886E+00  8.71307E+00  8.52890E+00  8.45335E+00  8.46156E+00  8.51184E+00  8.56831E+00  8.60590E+00  8.59666E+00  8.52568E+00
   8.40768E+00  8.26695E+00  8.11812E+00  7.96211E+00  7.79854E+00  7.63774E+00  7.48145E+00  7.32343E+00  7.16134E+00  6.99566E+00
   6.82772E+00  6.66005E+00  6.49535E+00  6.33711E+00  6.18871E+00  6.05412E+00  5.93706E+00  5.84164E+00  5.77155E+00  5.73080E+00
   5.72292E+00  5.75170E+00  5.82041E+00  5.93246E+00  6.09059E+00  6.29751E+00  6.55510E+00  6.86494E+00  7.22741E+00  7.64215E+00
   8.10719E+00  8.61941E+00  9.17367E+00  9.76337E+00  1.03796E+01  1.10121E+01  1.16482E+01  1.22744E+01  1.28755E+01  1.34363E+01
   1.39409E+01  1.43747E+01  1.47239E+01  1.49768E+01  1.51243E+01  1.51605E+01  1.50823E+01  1.48908E+01  1.45899E+01  1.41873E+01
   1.36930E+01  1.31198E+01  1.24817E+01  1.17941E+01  1.10722E+01  1.03313E+01  9.58556E+00  8.84779E+00  8.12889E+00  7.43818E+00
   6.78260E+00  6.16748E+00  5.59595E+00  5.06978E+00  4.58899E+00  4.15279E+00  3.75916E+00  3.40575E+00  3.08945E+00  2.80724E+00
   2.55570E+00  2.33181E+00  2.13237E+00  1.95468E+00  1.79596E+00  1.65401E+00  1.52656E+00  1.41192E+00  1.30833E+00  1.21452E+00
   1.12911E+00  1.05120E+00  9.79724E-01  9.14073E-01  8.53416E-01  7.97330E-01  7.45138E-01  6.96568E-01  6.51089E-01  6.08551E-01
   5.68501E-01  5.30846E-01  4.95193E-01  4.61518E-01  4.29500E-01  3.99155E-01  3.70180E-01  3.42606E-01  3.16159E-01  2.90912E-01
   2.66627E-01  2.43388E-01  2.20952E-01  1.99410E-01  1.78545E-01  1.58478E-01  1.39004E-01  1.20237E-01  1.01966E-01  8.43098E-02
   6.70828E-02  5.04268E-02  3.41558E-02  1.83970E-02  2.95781E-03 -1.20215E-02 -2.67109E-02 -4.09611E-02 -5.49524E-02 -6.85511E-02
  -8.19361E-02 -9.49538E-02 -1.07763E-01 -1.20212E-01 -1.32475E-01 -1.44410E-01 -1.56183E-01 -1.67631E-01 -1.78907E-01 -1.89857E-01
  -2.00652E-01 -2.11141E-01 -2.21474E-01 -2.31477E-01 -2.41299E-01 -2.50780E-01 -2.60079E-01 -2.69024E-01
 NY background values follow
     3.285E+00    3.278E+00    3.271E+00    3.264E+00    3.257E+00    3.250E+00    3.243E+00    3.237E+00    3.230E+00    3.223E+00
     3.216E+00    3.209E+00    3.202E+00    3.195E+00    3.188E+00    3.181E+00    3.175E+00    3.168E+00    3.161E+00    3.154E+00
     3.147E+00    3.140E+00    3.133E+00    3.126E+00    3.119E+00    3.112E+00    3.106E+00    3.099E+00    3.092E+00    3.085E+00
     3.078E+00    3.071E+00    3.064E+00    3.057E+00    3.050E+00    3.043E+00    3.036E+00    3.030E+00    3.023E+00    3.016E+00
     3.009E+00    3.002E+00    2.995E+00    2.988E+00    2.981E+00    2.974E+00    2.967E+00    2.960E+00    2.953E+00    2.947E+00
     2.940E+00    2.933E+00    2.926E+00    2.919E+00    2.912E+00    2.905E+00    2.898E+00    2.891E+00    2.884E+00    2.877E+00
     2.870E+00    2.863E+00    2.856E+00    2.850E+00    2.843E+00    2.836E+00    2.829E+00    2.822E+00    2.815E+00    2.808E+00
     2.801E+00    2.794E+00    2.787E+00    2.780E+00    2.773E+00    2.766E+00    2.759E+00    2.752E+00    2.745E+00    2.739E+00
     2.732E+00    2.725E+00    2.718E+00    2.711E+00    2.704E+00    2.697E+00    2.690E+00    2.683E+00    2.676E+00    2.669E+00
     2.662E+00    2.655E+00    2.648E+00    2.641E+00    2.634E+00    2.627E+00    2.620E+00    2.613E+00    2.606E+00    2.599E+00
     2.592E+00    2.585E+00    2.579E+00    2.572E+00    2.565E+00    2.558E+00    2.551E+00    2.544E+00    2.537E+00    2.530E+00
     2.523E+00    2.516E+00    2.509E+00    2.502E+00    2.495E+00    2.488E+00    2.481E+00    2.474E+00    2.467E+00    2.460E+00
     2.453E+00    2.446E+00    2.439E+00    2.432E+00    2.425E+00    2.418E+00    2.411E+00    2.404E+00    2.397E+00    2.390E+00
     2.383E+00    2.376E+00    2.369E+00    2.362E+00    2.355E+00    2.348E+00    2.341E+00    2.334E+00    2.327E+00    2.320E+00
     2.313E+00    2.306E+00    2.299E+00    2.292E+00    2.285E+00    2.278E+00    2.271E+00    2.264E+00    2.257E+00    2.250E+00
     2.243E+00    2.236E+00    2.229E+00    2.222E+00    2.215E+00    2.209E+00    2.202E+00    2.195E+00    2.188E+00    2.181E+00
     2.174E+00    2.167E+00    2.160E+00    2.153E+00    2.146E+00    2.139E+00    2.132E+00    2.125E+00    2.118E+00    2.110E+00
     2.103E+00    2.096E+00    2.089E+00    2.082E+00    2.075E+00    2.068E+00    2.061E+00    2.054E+00    2.047E+00    2.040E+00
     2.033E+00    2.026E+00    2.019E+00    2.012E+00    2.005E+00    1.998E+00    1.991E+00    1.984E+00    1.977E+00    1.970E+00
     1.963E+00    1.956E+00    1.949E+00    1.942E+00    1.935E+00    1.928E+00    1.921E+00    1.914E+00    1.907E+00    1.900E+00
     1.893E+00    1.886E+00    1.879E+00    1.872E+00    1.865E+00    1.858E+00    1.851E+00    1.844E+00    1.837E+00    1.830E+00
     1.823E+00    1.816E+00    1.809E+00    1.802E+00    1.795E+00    1.788E+00    1.781E+00    1.774E+00    1.767E+00    1.760E+00
     1.753E+00    1.746E+00    1.739E+00    1.732E+00    1.725E+00    1.718E+00    1.711E+00    1.704E+00    1.697E+00    1.690E+00
     1.683E+00    1.676E+00    1.669E+00    1.661E+00    1.654E+00    1.647E+00    1.640E+00    1.633E+00    1.626E+00    1.619E+00
     1.612E+00    1.605E+00    1.598E+00    1.591E+00    1.584E+00    1.577E+00    1.570E+00    1.563E+00    1.556E+00    1.549E+00
     1.542E+00    1.535E+00    1.528E+00    1.521E+00    1.514E+00    1.507E+00    1.500E+00    1.493E+00    1.486E+00    1.479E+00
     1.472E+00    1.465E+00    1.458E+00    1.451E+00    1.444E+00    1.436E+00    1.429E+00    1.422E+00    1.415E+00    1.408E+00
     1.401E+00    1.394E+00    1.387E+00    1.380E+00    1.373E+00    1.366E+00    1.359E+00    1.352E+00    1.345E+00    1.338E+00
     1.331E+00    1.324E+00    1.317E+00    1.310E+00    1.303E+00    1.296E+00    1.289E+00    1.282E+00    1.275E+00    1.268E+00
     1.261E+00    1.254E+00    1.247E+00    1.239E+00    1.232E+00    1.225E+00    1.218E+00    1.211E+00    1.204E+00    1.197E+00
     1.190E+00    1.183E+00    1.176E+00    1.169E+00    1.162E+00    1.155E+00    1.148E+00    1.141E+00    1.134E+00    1.127E+00
     1.120E+00    1.113E+00    1.106E+00    1.099E+00    1.092E+00    1.085E+00    1.078E+00    1.071E+00    1.063E+00    1.056E+00
     1.049E+00    1.042E+00    1.035E+00    1.028E+00    1.021E+00    1.014E+00    1.007E+00    1.000E+00    9.931E-01    9.860E-01
     9.790E-01    9.720E-01    9.649E-01    9.579E-01    9.508E-01    9.438E-01    9.367E-01    9.297E-01    9.227E-01    9.156E-01
     9.086E-01    9.015E-01    8.945E-01    8.875E-01    8.804E-01    8.734E-01    8.663E-01    8.593E-01    8.523E-01    8.452E-01
     8.382E-01    8.311E-01    8.241E-01    8.171E-01    8.100E-01    8.030E-01    7.959E-01    7.889E-01    7.819E-01    7.748E-01
     7.678E-01    7.607E-01    7.537E-01    7.467E-01    7.396E-01    7.326E-01    7.255E-01    7.185E-01    7.115E-01    7.044E-01
     6.974E-01    6.903E-01    6.833E-01    6.763E-01    6.692E-01    6.622E-01    6.551E-01    6.481E-01    6.411E-01    6.340E-01
     6.270E-01    6.200E-01    6.129E-01    6.059E-01    5.988E-01    5.918E-01    5.848E-01    5.777E-01    5.707E-01    5.637E-01
     5.566E-01    5.496E-01    5.425E-01    5.355E-01    5.285E-01    5.214E-01    5.144E-01    5.074E-01    5.003E-01    4.933E-01
     4.863E-01    4.792E-01    4.722E-01    4.652E-01    4.581E-01    4.511E-01    4.440E-01    4.370E-01    4.300E-01    4.229E-01
     4.159E-01    4.089E-01    4.018E-01    3.948E-01    3.878E-01    3.808E-01    3.737E-01    3.667E-01    3.597E-01    3.526E-01
     3.456E-01    3.386E-01    3.315E-01    3.245E-01    3.175E-01    3.104E-01    3.034E-01    2.964E-01    2.894E-01    2.823E-01
     2.753E-01    2.683E-01    2.612E-01    2.542E-01    2.472E-01    2.402E-01    2.331E-01    2.261E-01    2.191E-01    2.121E-01
     2.050E-01    1.980E-01    1.910E-01    1.840E-01    1.769E-01    1.699E-01    1.629E-01    1.559E-01    1.488E-01    1.418E-01
     1.348E-01    1.278E-01    1.207E-01    1.137E-01    1.067E-01    9.968E-02    9.266E-02    8.564E-02    7.862E-02    7.160E-02
     6.459E-02    5.757E-02    5.055E-02    4.353E-02    3.651E-02    2.949E-02    2.248E-02    1.546E-02    8.444E-03    1.428E-03
    -5.587E-03   -1.260E-02   -1.962E-02   -2.663E-02   -3.365E-02   -4.066E-02   -4.767E-02   -5.469E-02   -6.170E-02   -6.871E-02
    -7.572E-02   -8.273E-02   -8.974E-02   -9.675E-02   -1.038E-01   -1.108E-01   -1.178E-01   -1.248E-01   -1.318E-01   -1.388E-01
    -1.458E-01   -1.528E-01   -1.598E-01   -1.668E-01   -1.738E-01   -1.808E-01   -1.879E-01   -1.949E-01
 Ala      Conc. = 3.04E+02
