 LCModel (Version 6.3-1L) Copyright: S.W. Provencher.          Ref.: Magn. Reson. Med. 30:672-679 (1993).                
 Slice#2 Row#3 Col#12  K_02_press_1_raw_act
 36 lines in following concentration table = NCONC+1
    Conc.  %SD /Cr+PCr  Metabolite                                         
 3.66E+03  49%  44.242 Ala                                                 
   13.993 303%   0.169 Asp                                                 
    0.000 999%   0.000 Cr                                                  
   82.680  79%   1.000 PCr                                                 
    5.869 434% 7.1E-02 GABA                                                
   11.612 220%   0.140 Glc                                                 
 2.00E+03  39%  24.147 Gln                                                 
 1.43E+03  53%  17.300 Glu                                                 
    0.000 999%   0.000 GPC                                                 
   51.366  50%   0.621 PCh                                                 
    0.000 999%   0.000 GSH                                                 
  431.312  74%   5.217 Ins                                                 
 1.33E+03 124%  16.045 Lac                                                 
    0.000 999%   0.000 NAA                                                 
    0.000 999%   0.000 NAAG                                                
    7.492 112% 9.1E-02 Scyllo                                              
   36.346 116%   0.440 Tau                                                 
    0.000 999%   0.000 -CrCH2                                              
   51.366  50%   0.621 GPC+PCh                                             
    0.000 999%   0.000 NAA+NAAG                                            
   82.680  79%   1.000 Cr+PCr                                              
 3.43E+03  42%  41.447 Glu+Gln                                             
 2.25E+05   6% 2.7E+03 Lip13a                                              
 3.11E+03  29%  37.618 Lip13b                                              
 6.04E+04  11% 730.517 Lip09                                               
  770.783  81%   9.323 MM09                                                
 6.37E+03  22%  77.033-Lip20                                               
 1.73E+03  36%  20.943 MM20                                                
    0.000 999%   0.000 MM12                                                
 8.93E+04  11% 1.1E+03 MM14                                                
 8.60E+03  36% 103.987 MM17                                                
 2.29E+05   6% 2.8E+03 Lip13a+Lip13b                                       
 3.18E+05   4% 3.8E+03 MM14+Lip13a+Lip13b+MM12                             
 6.12E+04  11% 739.839 MM09+Lip09                                          
 8.10E+03  14%  97.975 MM20+Lip20                                          
   6 lines in following misc. output table
  FWHM = 0.107 ppm    S/N = 175                                            
  Data shift =-0.038 ppm                                                   
  Ph: 117 deg      21.3 deg/ppm                                            
  alphaB,S = 8.1E+00,   2.7E+01                                            
    7 spline knots.   Ns = 9(2)                                            
  ( 4) 2 infls.   ( 3) 1 extrs.                                            
  498 points on ppm-axis = NY
      4.000000     3.992357     3.984714     3.977070     3.969427     3.961784     3.954141     3.946497     3.938854     3.931211
      3.923568     3.915925     3.908281     3.900638     3.892995     3.885352     3.877708     3.870065     3.862422     3.854779
      3.847136     3.839492     3.831849     3.824206     3.816563     3.808919     3.801276     3.793633     3.785990     3.778347
      3.770703     3.763060     3.755417     3.747774     3.740130     3.732487     3.724844     3.717201     3.709558     3.701914
      3.694271     3.686628     3.678985     3.671341     3.663698     3.656055     3.648412     3.640769     3.633125     3.625482
      3.617839     3.610196     3.602552     3.594909     3.587266     3.579623     3.571980     3.564336     3.556693     3.549050
      3.541407     3.533763     3.526120     3.518477     3.510834     3.503191     3.495547     3.487904     3.480261     3.472618
      3.464974     3.457331     3.449688     3.442045     3.434402     3.426758     3.419115     3.411472     3.403829     3.396185
      3.388542     3.380899     3.373256     3.365613     3.357969     3.350326     3.342683     3.335040     3.327396     3.319753
      3.312110     3.304467     3.296824     3.289180     3.281537     3.273894     3.266251     3.258607     3.250964     3.243321
      3.235678     3.228034     3.220391     3.212748     3.205105     3.197462     3.189818     3.182175     3.174532     3.166889
      3.159245     3.151602     3.143959     3.136316     3.128673     3.121029     3.113386     3.105743     3.098100     3.090456
      3.082813     3.075170     3.067527     3.059884     3.052240     3.044597     3.036954     3.029311     3.021667     3.014024
      3.006381     2.998738     2.991095     2.983451     2.975808     2.968165     2.960522     2.952878     2.945235     2.937592
      2.929949     2.922306     2.914662     2.907019     2.899376     2.891733     2.884089     2.876446     2.868803     2.861160
      2.853517     2.845873     2.838230     2.830587     2.822944     2.815300     2.807657     2.800014     2.792371     2.784728
      2.777084     2.769441     2.761798     2.754155     2.746511     2.738868     2.731225     2.723582     2.715939     2.708295
      2.700652     2.693009     2.685366     2.677722     2.670079     2.662436     2.654793     2.647150     2.639506     2.631863
      2.624220     2.616577     2.608933     2.601290     2.593647     2.586004     2.578361     2.570717     2.563074     2.555431
      2.547788     2.540144     2.532501     2.524858     2.517215     2.509572     2.501928     2.494285     2.486642     2.478999
      2.471355     2.463712     2.456069     2.448426     2.440783     2.433139     2.425496     2.417853     2.410210     2.402566
      2.394923     2.387280     2.379637     2.371994     2.364350     2.356707     2.349064     2.341421     2.333777     2.326134
      2.318491     2.310848     2.303205     2.295561     2.287918     2.280275     2.272632     2.264988     2.257345     2.249702
      2.242059     2.234416     2.226772     2.219129     2.211486     2.203843     2.196199     2.188556     2.180913     2.173270
      2.165627     2.157983     2.150340     2.142697     2.135054     2.127410     2.119767     2.112124     2.104481     2.096838
      2.089194     2.081551     2.073908     2.066265     2.058621     2.050978     2.043335     2.035692     2.028049     2.020405
      2.012762     2.005119     1.997476     1.989833     1.982190     1.974546     1.966903     1.959260     1.951617     1.943974
      1.936331     1.928688     1.921045     1.913402     1.905759     1.898115     1.890472     1.882829     1.875186     1.867543
      1.859900     1.852257     1.844614     1.836971     1.829327     1.821684     1.814041     1.806398     1.798755     1.791112
      1.783469     1.775826     1.768183     1.760540     1.752896     1.745253     1.737610     1.729967     1.722324     1.714681
      1.707038     1.699395     1.691752     1.684108     1.676465     1.668822     1.661179     1.653536     1.645893     1.638250
      1.630607     1.622964     1.615321     1.607677     1.600034     1.592391     1.584748     1.577105     1.569462     1.561819
      1.554176     1.546533     1.538890     1.531246     1.523603     1.515960     1.508317     1.500674     1.493031     1.485388
      1.477745     1.470102     1.462458     1.454815     1.447172     1.439529     1.431886     1.424243     1.416600     1.408957
      1.401314     1.393671     1.386027     1.378384     1.370741     1.363098     1.355455     1.347812     1.340169     1.332526
      1.324883     1.317240     1.309596     1.301953     1.294310     1.286667     1.279024     1.271381     1.263738     1.256095
      1.248452     1.240808     1.233165     1.225522     1.217879     1.210236     1.202593     1.194950     1.187307     1.179664
      1.172021     1.164377     1.156734     1.149091     1.141448     1.133805     1.126162     1.118519     1.110876     1.103233
      1.095590     1.087946     1.080303     1.072660     1.065017     1.057374     1.049731     1.042088     1.034445     1.026802
      1.019158     1.011515     1.003872     0.996229     0.988586     0.980943     0.973300     0.965657     0.958014     0.950371
      0.942727     0.935084     0.927441     0.919798     0.912155     0.904512     0.896869     0.889226     0.881583     0.873940
      0.866296     0.858653     0.851010     0.843367     0.835724     0.828081     0.820438     0.812795     0.805152     0.797508
      0.789865     0.782222     0.774579     0.766936     0.759293     0.751650     0.744007     0.736364     0.728721     0.721077
      0.713434     0.705791     0.698148     0.690505     0.682862     0.675219     0.667576     0.659933     0.652290     0.644646
      0.637003     0.629360     0.621717     0.614074     0.606431     0.598788     0.591145     0.583502     0.575858     0.568215
      0.560572     0.552929     0.545286     0.537643     0.530000     0.522357     0.514714     0.507071     0.499427     0.491784
      0.484141     0.476498     0.468855     0.461212     0.453569     0.445925     0.438282     0.430639     0.422996     0.415353
      0.407710     0.400067     0.392424     0.384780     0.377137     0.369494     0.361851     0.354208     0.346565     0.338922
      0.331278     0.323635     0.315992     0.308349     0.300706     0.293063     0.285420     0.277777     0.270133     0.262490
      0.254847     0.247204     0.239561     0.231918     0.224275     0.216631     0.208988     0.201345
 NY phased data points follow
  -2.99987E+01 -2.88007E+01 -2.75201E+01 -2.79956E+01 -3.06539E+01 -2.83045E+01 -2.66896E+01 -2.37457E+01 -2.70348E+01 -2.94349E+01
  -2.65305E+01 -3.03211E+01 -2.97302E+01 -2.67052E+01 -2.73829E+01 -2.66459E+01 -2.86639E+01 -2.77315E+01 -2.86554E+01 -2.32176E+01
  -2.65226E+01 -2.75515E+01 -2.89977E+01 -3.20655E+01 -2.95622E+01 -2.98881E+01 -3.05648E+01 -2.96114E+01 -2.83252E+01 -2.58421E+01
  -2.80503E+01 -2.94516E+01 -3.10314E+01 -2.83690E+01 -2.73034E+01 -2.90798E+01 -2.70017E+01 -2.92255E+01 -2.75758E+01 -3.23865E+01
  -2.92783E+01 -3.04187E+01 -2.76937E+01 -2.91933E+01 -2.89722E+01 -2.87764E+01 -3.09944E+01 -3.13447E+01 -2.97071E+01 -2.80896E+01
  -2.94196E+01 -2.84403E+01 -2.82049E+01 -2.73463E+01 -3.05838E+01 -2.72924E+01 -3.21430E+01 -2.85208E+01 -2.90320E+01 -2.76855E+01
  -2.80858E+01 -2.44630E+01 -2.70279E+01 -2.90169E+01 -3.08372E+01 -3.10010E+01 -2.90986E+01 -2.73672E+01 -2.97797E+01 -2.88604E+01
  -3.17312E+01 -3.07712E+01 -2.89185E+01 -3.07955E+01 -3.22842E+01 -3.09470E+01 -2.98883E+01 -3.36726E+01 -3.17735E+01 -2.86728E+01
  -3.21178E+01 -3.49800E+01 -3.28607E+01 -3.12198E+01 -3.12128E+01 -3.16338E+01 -3.02131E+01 -3.65049E+01 -3.12243E+01 -3.40731E+01
  -2.69422E+01 -3.47665E+01 -3.67370E+01 -3.46981E+01 -3.41627E+01 -3.46331E+01 -3.30270E+01 -3.86559E+01 -3.35130E+01 -3.06455E+01
  -3.80721E+01 -3.42845E+01 -3.04360E+01 -3.39843E+01 -3.31491E+01 -3.39961E+01 -3.34722E+01 -3.51301E+01 -3.35965E+01 -3.19102E+01
  -3.22513E+01 -3.21613E+01 -3.61613E+01 -3.49153E+01 -3.07982E+01 -3.49407E+01 -3.48410E+01 -3.01278E+01 -3.43006E+01 -3.54194E+01
  -3.31692E+01 -3.43454E+01 -3.69167E+01 -3.34356E+01 -3.41779E+01 -3.40967E+01 -3.49486E+01 -3.56927E+01 -3.37687E+01 -3.64494E+01
  -3.28665E+01 -3.01186E+01 -3.31399E+01 -3.24717E+01 -2.84405E+01 -3.24021E+01 -2.95428E+01 -3.28581E+01 -3.83687E+01 -3.52660E+01
  -3.29515E+01 -3.72198E+01 -2.95405E+01 -3.04571E+01 -3.33940E+01 -2.72589E+01 -3.04622E+01 -3.49077E+01 -3.18741E+01 -2.88129E+01
  -3.32474E+01 -3.09563E+01 -3.28822E+01 -3.34529E+01 -3.20177E+01 -2.82859E+01 -3.30312E+01 -3.28703E+01 -3.25752E+01 -3.19756E+01
  -3.37175E+01 -3.43709E+01 -3.40985E+01 -3.55446E+01 -3.62374E+01 -3.59299E+01 -3.51540E+01 -3.47316E+01 -3.49808E+01 -3.27500E+01
  -3.84863E+01 -3.17496E+01 -3.43189E+01 -3.82256E+01 -3.56304E+01 -3.55626E+01 -3.36694E+01 -3.54397E+01 -3.43632E+01 -3.54087E+01
  -3.62925E+01 -3.88178E+01 -3.71670E+01 -3.52880E+01 -3.68750E+01 -3.72272E+01 -3.41666E+01 -3.74371E+01 -3.71672E+01 -3.66917E+01
  -3.36690E+01 -3.74502E+01 -3.55184E+01 -3.83783E+01 -3.68304E+01 -3.44233E+01 -3.41104E+01 -3.47629E+01 -3.37225E+01 -3.07873E+01
  -3.31049E+01 -3.17257E+01 -3.21874E+01 -3.28135E+01 -2.75683E+01 -2.65805E+01 -2.74607E+01 -2.91791E+01 -2.58986E+01 -2.72652E+01
  -2.30794E+01 -2.17653E+01 -2.55916E+01 -2.78448E+01 -2.00595E+01 -1.85141E+01 -1.97600E+01 -1.65894E+01 -1.53391E+01 -1.81775E+01
  -1.75007E+01 -1.50977E+01 -1.17032E+01 -1.04149E+01 -9.97730E+00 -1.11066E+01 -1.55693E+01 -1.07144E+01 -9.03747E+00 -9.41410E+00
  -9.15057E+00 -6.12068E+00 -6.60609E+00 -2.94454E+00 -6.17783E+00  9.78810E-01  6.42681E-01  2.60291E+00 -3.83204E-01  1.82853E+00
   4.87671E+00  4.01868E+00  4.88485E+00  8.66594E+00  7.39043E+00  8.35506E+00  8.97223E+00  2.66162E+00  8.74738E+00  1.10292E+01
   1.29703E+01  9.41783E+00  1.11850E+01  1.30446E+01  1.08010E+01  1.16868E+01  1.22872E+01  1.15757E+01  1.25772E+01  1.45049E+01
   9.53816E+00  1.40379E+01  1.60378E+01  1.72932E+01  1.97548E+01  2.03253E+01  2.08897E+01  2.34626E+01  2.36503E+01  2.26985E+01
   2.24137E+01  2.28951E+01  2.30859E+01  2.34222E+01  2.50797E+01  2.79049E+01  2.80772E+01  2.85178E+01  3.60433E+01  3.61412E+01
   3.76088E+01  4.15046E+01  3.76404E+01  3.95067E+01  3.95007E+01  4.39672E+01  4.41189E+01  4.38137E+01  4.96108E+01  4.88399E+01
   5.32225E+01  5.64085E+01  5.78860E+01  6.03170E+01  6.65088E+01  6.76217E+01  7.11520E+01  7.74298E+01  7.67873E+01  8.35236E+01
   8.75660E+01  9.48129E+01  9.98647E+01  1.06905E+02  1.15235E+02  1.20245E+02  1.25178E+02  1.33305E+02  1.40426E+02  1.53705E+02
   1.64028E+02  1.75653E+02  1.86146E+02  1.98129E+02  2.14119E+02  2.26741E+02  2.38886E+02  2.56338E+02  2.72995E+02  2.89114E+02
   3.10794E+02  3.29564E+02  3.49678E+02  3.75704E+02  3.93968E+02  4.19843E+02  4.45733E+02  4.73358E+02  4.99032E+02  5.33647E+02
   5.60563E+02  5.85398E+02  6.22958E+02  6.56662E+02  6.86286E+02  7.22603E+02  7.56891E+02  7.83952E+02  8.25462E+02  8.46755E+02
   8.74778E+02  8.96377E+02  9.13803E+02  9.23278E+02  9.33753E+02  9.34427E+02  9.29118E+02  9.23068E+02  9.15276E+02  8.98374E+02
   8.84311E+02  8.65081E+02  8.40034E+02  8.19112E+02  7.96800E+02  7.70500E+02  7.44033E+02  7.16040E+02  6.92051E+02  6.60836E+02
   6.33994E+02  6.05443E+02  5.88389E+02  5.63075E+02  5.43232E+02  5.21000E+02  5.04465E+02  4.89817E+02  4.75766E+02  4.64784E+02
   4.54225E+02  4.40216E+02  4.29741E+02  4.20641E+02  4.07987E+02  4.04872E+02  3.92012E+02  3.84709E+02  3.78305E+02  3.70604E+02
   3.66398E+02  3.58118E+02  3.55551E+02  3.46835E+02  3.40715E+02  3.39160E+02  3.32115E+02  3.27165E+02  3.24608E+02  3.20062E+02
   3.13856E+02  3.13430E+02  3.09463E+02  3.01217E+02  3.01633E+02  2.97332E+02  2.92565E+02  2.89268E+02  2.83324E+02  2.82631E+02
   2.79617E+02  2.80094E+02  2.72433E+02  2.69089E+02  2.65093E+02  2.62267E+02  2.59439E+02  2.56604E+02  2.51793E+02  2.43457E+02
   2.40068E+02  2.36930E+02  2.33301E+02  2.27326E+02  2.22477E+02  2.21037E+02  2.14626E+02  2.13295E+02  2.03919E+02  2.01964E+02
   1.96453E+02  1.95355E+02  1.91200E+02  1.87319E+02  1.82906E+02  1.80091E+02  1.75720E+02  1.70328E+02  1.64350E+02  1.58811E+02
   1.59415E+02  1.56769E+02  1.51473E+02  1.47580E+02  1.45648E+02  1.41771E+02  1.38786E+02  1.34678E+02  1.30679E+02  1.29935E+02
   1.21441E+02  1.24623E+02  1.21757E+02  1.16973E+02  1.12826E+02  1.14857E+02  1.06819E+02  1.04132E+02  1.01519E+02  1.04224E+02
   9.67074E+01  9.61092E+01  9.46351E+01  9.36970E+01  9.18522E+01  9.04380E+01  8.51090E+01  8.54531E+01  8.21833E+01  8.24088E+01
   7.82844E+01  7.77365E+01  7.37951E+01  7.33991E+01  7.14951E+01  7.02889E+01  6.76478E+01  6.80935E+01  6.55480E+01  6.31678E+01
   6.62992E+01  5.92842E+01  5.83942E+01  5.78765E+01  5.66714E+01  5.54345E+01  4.99401E+01  5.25825E+01  5.31819E+01  5.14803E+01
   5.06410E+01  5.29739E+01  4.56787E+01  4.58641E+01  4.83404E+01  4.74462E+01  4.60501E+01  4.21670E+01  4.26296E+01  4.33576E+01
   3.91190E+01  4.06554E+01  3.55041E+01  3.67027E+01  3.62285E+01  3.76823E+01  3.36303E+01  3.24079E+01
 NY points of the fit to the data follow
  -2.85610E+01 -2.78626E+01 -2.84605E+01 -2.79119E+01 -2.83183E+01 -2.78904E+01 -2.83497E+01 -2.80301E+01 -2.84190E+01 -2.81627E+01
  -2.84524E+01 -2.83419E+01 -2.86359E+01 -2.83273E+01 -2.83730E+01 -2.77853E+01 -2.78818E+01 -2.72801E+01 -2.72777E+01 -2.65390E+01
  -2.72167E+01 -2.62241E+01 -2.74168E+01 -2.66550E+01 -2.79406E+01 -2.68572E+01 -2.81755E+01 -2.67520E+01 -2.90828E+01 -2.82221E+01
  -2.97567E+01 -2.86101E+01 -2.97468E+01 -2.82845E+01 -2.87924E+01 -2.72637E+01 -2.77338E+01 -2.73551E+01 -2.77367E+01 -2.74613E+01
  -2.74895E+01 -2.70778E+01 -2.71450E+01 -2.75902E+01 -2.76016E+01 -2.80485E+01 -2.77258E+01 -2.80272E+01 -2.78674E+01 -2.83543E+01
  -2.82183E+01 -2.88238E+01 -2.90271E+01 -2.96682E+01 -2.96068E+01 -2.97904E+01 -2.97048E+01 -2.99392E+01 -3.00033E+01 -3.03239E+01
  -3.04061E+01 -3.05637E+01 -3.07020E+01 -3.08913E+01 -3.10130E+01 -3.11776E+01 -3.12652E+01 -3.14269E+01 -3.14729E+01 -3.15691E+01
  -3.15856E+01 -3.16894E+01 -3.17309E+01 -3.18527E+01 -3.18775E+01 -3.20237E+01 -3.20971E+01 -3.22379E+01 -3.23156E+01 -3.24902E+01
  -3.25884E+01 -3.27879E+01 -3.29095E+01 -3.31332E+01 -3.32380E+01 -3.34664E+01 -3.35598E+01 -3.38388E+01 -3.39159E+01 -3.42572E+01
  -3.42929E+01 -3.45502E+01 -3.45026E+01 -3.46737E+01 -3.45921E+01 -3.47230E+01 -3.45562E+01 -3.44034E+01 -3.41637E+01 -3.39425E+01
  -3.37591E+01 -3.36200E+01 -3.34245E+01 -3.31827E+01 -3.29439E+01 -3.26803E+01 -3.25816E+01 -3.28279E+01 -3.27818E+01 -3.30259E+01
  -3.30135E+01 -3.33855E+01 -3.34260E+01 -3.39481E+01 -3.39694E+01 -3.43901E+01 -3.43685E+01 -3.47169E+01 -3.46531E+01 -3.48471E+01
  -3.46471E+01 -3.46068E+01 -3.44172E+01 -3.42916E+01 -3.41635E+01 -3.38186E+01 -3.36692E+01 -3.32278E+01 -3.31333E+01 -3.26322E+01
  -3.28467E+01 -3.24778E+01 -3.26922E+01 -3.23256E+01 -3.25855E+01 -3.22796E+01 -3.25872E+01 -3.23746E+01 -3.25966E+01 -3.24163E+01
  -3.25759E+01 -3.24412E+01 -3.25140E+01 -3.24013E+01 -3.24021E+01 -3.23055E+01 -3.22994E+01 -3.22486E+01 -3.21697E+01 -3.21098E+01
  -3.20689E+01 -3.20499E+01 -3.20499E+01 -3.20755E+01 -3.21206E+01 -3.21904E+01 -3.22800E+01 -3.23894E+01 -3.25181E+01 -3.26632E+01
  -3.28256E+01 -3.29970E+01 -3.31826E+01 -3.33675E+01 -3.35674E+01 -3.37596E+01 -3.39633E+01 -3.41516E+01 -3.43460E+01 -3.45173E+01
  -3.46958E+01 -3.48489E+01 -3.50045E+01 -3.51322E+01 -3.52537E+01 -3.53451E+01 -3.54333E+01 -3.54840E+01 -3.55209E+01 -3.55280E+01
  -3.54916E+01 -3.54407E+01 -3.53409E+01 -3.52380E+01 -3.50991E+01 -3.49878E+01 -3.48634E+01 -3.47716E+01 -3.47272E+01 -3.46749E+01
  -3.47470E+01 -3.47228E+01 -3.47754E+01 -3.46464E+01 -3.44763E+01 -3.40887E+01 -3.36861E+01 -3.31137E+01 -3.25022E+01 -3.18122E+01
  -3.10970E+01 -3.02034E+01 -2.94441E+01 -2.87167E+01 -2.84734E+01 -2.77875E+01 -2.78693E+01 -2.68772E+01 -2.66770E+01 -2.60017E+01
  -2.59859E+01 -2.54142E+01 -2.54684E+01 -2.44120E+01 -2.28944E+01 -2.21661E+01 -2.08311E+01 -2.02364E+01 -1.83914E+01 -1.81507E+01
  -1.61566E+01 -1.59854E+01 -1.43720E+01 -1.42824E+01 -1.28071E+01 -1.26842E+01 -1.11645E+01 -1.04363E+01 -9.38230E+00 -8.49738E+00
  -7.66843E+00 -6.64474E+00 -6.26337E+00 -4.84020E+00 -4.26758E+00 -2.56283E+00 -2.12534E+00 -6.52920E-01 -2.20451E-01  1.01705E+00
   2.21133E+00  3.26097E+00  4.58277E+00  4.98683E+00  6.25487E+00  5.63035E+00  7.50571E+00  7.13930E+00  8.99012E+00  8.49734E+00
   1.05221E+01  1.00165E+01  1.17937E+01  1.17039E+01  1.33324E+01  1.34607E+01  1.49971E+01  1.52619E+01  1.62220E+01  1.65023E+01
   1.72971E+01  1.75925E+01  1.83735E+01  1.90336E+01  1.96005E+01  2.00433E+01  2.06122E+01  2.10911E+01  2.15778E+01  2.22729E+01
   2.28595E+01  2.36076E+01  2.42551E+01  2.51964E+01  2.59679E+01  2.71418E+01  2.81536E+01  2.94752E+01  3.06652E+01  3.21415E+01
   3.34913E+01  3.50718E+01  3.66523E+01  3.83889E+01  4.01832E+01  4.21222E+01  4.41620E+01  4.62737E+01  4.85327E+01  5.08777E+01
   5.33850E+01  5.60010E+01  5.87986E+01  6.17212E+01  6.48439E+01  6.81582E+01  7.17116E+01  7.55087E+01  7.95946E+01  8.39945E+01
   8.87519E+01  9.39048E+01  9.94896E+01  1.05557E+02  1.12142E+02  1.19291E+02  1.27032E+02  1.35399E+02  1.44421E+02  1.54102E+02
   1.64213E+02  1.74880E+02  1.86403E+02  1.98443E+02  2.11595E+02  2.25314E+02  2.40141E+02  2.55871E+02  2.72616E+02  2.90155E+02
   3.09530E+02  3.30605E+02  3.51110E+02  3.74077E+02  3.95633E+02  4.20243E+02  4.44901E+02  4.72790E+02  4.99255E+02  5.30954E+02
   5.58798E+02  5.89329E+02  6.22497E+02  6.55085E+02  6.89313E+02  7.21450E+02  7.56132E+02  7.87109E+02  8.23446E+02  8.47553E+02
   8.76148E+02  8.93293E+02  9.14306E+02  9.22765E+02  9.34324E+02  9.32167E+02  9.32547E+02  9.21905E+02  9.14525E+02  8.99233E+02
   8.84259E+02  8.62615E+02  8.43362E+02  8.19319E+02  7.96776E+02  7.69654E+02  7.43425E+02  7.16008E+02  6.90123E+02  6.61693E+02
   6.35591E+02  6.08803E+02  5.85204E+02  5.61967E+02  5.42066E+02  5.22425E+02  5.05784E+02  4.89619E+02  4.76207E+02  4.63293E+02
   4.51842E+02  4.40619E+02  4.30528E+02  4.20765E+02  4.11794E+02  4.02688E+02  3.94271E+02  3.86414E+02  3.78994E+02  3.71960E+02
   3.65280E+02  3.58934E+02  3.52908E+02  3.47187E+02  3.41761E+02  3.36615E+02  3.31736E+02  3.27109E+02  3.22716E+02  3.18536E+02
   3.14550E+02  3.10734E+02  3.07063E+02  3.03513E+02  3.00055E+02  2.96665E+02  2.93318E+02  2.89989E+02  2.86655E+02  2.83297E+02
   2.79897E+02  2.76441E+02  2.72918E+02  2.69320E+02  2.65642E+02  2.61882E+02  2.58041E+02  2.54122E+02  2.50129E+02  2.46070E+02
   2.41951E+02  2.37780E+02  2.33565E+02  2.29316E+02  2.25040E+02  2.20746E+02  2.16441E+02  2.12134E+02  2.07831E+02  2.03539E+02
   1.99266E+02  1.95017E+02  1.90798E+02  1.86616E+02  1.82474E+02  1.78379E+02  1.74335E+02  1.70347E+02  1.66417E+02  1.62551E+02
   1.58751E+02  1.55020E+02  1.51360E+02  1.47774E+02  1.44263E+02  1.40828E+02  1.37470E+02  1.34190E+02  1.30988E+02  1.27864E+02
   1.24817E+02  1.21848E+02  1.18954E+02  1.16136E+02  1.13393E+02  1.10722E+02  1.08122E+02  1.05592E+02  1.03131E+02  1.00737E+02
   9.84068E+01  9.61404E+01  9.39354E+01  9.17901E+01  8.97026E+01  8.76713E+01  8.56942E+01  8.37697E+01  8.18962E+01  8.00719E+01
   7.82951E+01  7.65641E+01  7.48775E+01  7.32337E+01  7.16313E+01  7.00686E+01  6.85445E+01  6.70573E+01  6.56059E+01  6.41890E+01
   6.28054E+01  6.14538E+01  6.01331E+01  5.88421E+01  5.75798E+01  5.63453E+01  5.51374E+01  5.39553E+01  5.27980E+01  5.16645E+01
   5.05542E+01  4.94661E+01  4.83995E+01  4.73535E+01  4.63276E+01  4.53209E+01  4.43327E+01  4.33626E+01  4.24097E+01  4.14736E+01
   4.05536E+01  3.96491E+01  3.87597E+01  3.78848E+01  3.70240E+01  3.61766E+01  3.53423E+01  3.45207E+01
 NY background values follow
    -9.142E+01   -9.134E+01   -9.127E+01   -9.120E+01   -9.114E+01   -9.107E+01   -9.102E+01   -9.096E+01   -9.092E+01   -9.087E+01
    -9.083E+01   -9.079E+01   -9.076E+01   -9.073E+01   -9.071E+01   -9.068E+01   -9.067E+01   -9.065E+01   -9.064E+01   -9.063E+01
    -9.063E+01   -9.063E+01   -9.064E+01   -9.064E+01   -9.066E+01   -9.067E+01   -9.069E+01   -9.071E+01   -9.073E+01   -9.076E+01
    -9.079E+01   -9.083E+01   -9.087E+01   -9.091E+01   -9.095E+01   -9.100E+01   -9.105E+01   -9.110E+01   -9.116E+01   -9.122E+01
    -9.128E+01   -9.134E+01   -9.141E+01   -9.148E+01   -9.155E+01   -9.163E+01   -9.171E+01   -9.179E+01   -9.187E+01   -9.195E+01
    -9.204E+01   -9.213E+01   -9.222E+01   -9.232E+01   -9.241E+01   -9.251E+01   -9.261E+01   -9.272E+01   -9.282E+01   -9.293E+01
    -9.304E+01   -9.315E+01   -9.326E+01   -9.337E+01   -9.349E+01   -9.361E+01   -9.373E+01   -9.385E+01   -9.397E+01   -9.409E+01
    -9.422E+01   -9.434E+01   -9.447E+01   -9.460E+01   -9.473E+01   -9.486E+01   -9.499E+01   -9.513E+01   -9.526E+01   -9.540E+01
    -9.553E+01   -9.567E+01   -9.580E+01   -9.594E+01   -9.608E+01   -9.622E+01   -9.636E+01   -9.650E+01   -9.664E+01   -9.678E+01
    -9.692E+01   -9.706E+01   -9.720E+01   -9.734E+01   -9.748E+01   -9.762E+01   -9.777E+01   -9.791E+01   -9.805E+01   -9.819E+01
    -9.833E+01   -9.847E+01   -9.861E+01   -9.874E+01   -9.888E+01   -9.902E+01   -9.916E+01   -9.929E+01   -9.943E+01   -9.956E+01
    -9.969E+01   -9.982E+01   -9.996E+01   -1.001E+02   -1.002E+02   -1.003E+02   -1.005E+02   -1.006E+02   -1.007E+02   -1.008E+02
    -1.010E+02   -1.011E+02   -1.012E+02   -1.013E+02   -1.014E+02   -1.015E+02   -1.016E+02   -1.017E+02   -1.018E+02   -1.019E+02
    -1.020E+02   -1.021E+02   -1.022E+02   -1.023E+02   -1.024E+02   -1.025E+02   -1.026E+02   -1.027E+02   -1.028E+02   -1.028E+02
    -1.029E+02   -1.030E+02   -1.031E+02   -1.031E+02   -1.032E+02   -1.033E+02   -1.033E+02   -1.034E+02   -1.035E+02   -1.035E+02
    -1.036E+02   -1.036E+02   -1.037E+02   -1.037E+02   -1.038E+02   -1.038E+02   -1.039E+02   -1.039E+02   -1.039E+02   -1.040E+02
    -1.040E+02   -1.040E+02   -1.040E+02   -1.040E+02   -1.041E+02   -1.041E+02   -1.041E+02   -1.041E+02   -1.041E+02   -1.041E+02
    -1.041E+02   -1.041E+02   -1.041E+02   -1.041E+02   -1.041E+02   -1.041E+02   -1.041E+02   -1.040E+02   -1.040E+02   -1.040E+02
    -1.040E+02   -1.039E+02   -1.039E+02   -1.038E+02   -1.038E+02   -1.038E+02   -1.037E+02   -1.037E+02   -1.036E+02   -1.035E+02
    -1.035E+02   -1.034E+02   -1.033E+02   -1.033E+02   -1.032E+02   -1.031E+02   -1.030E+02   -1.030E+02   -1.029E+02   -1.028E+02
    -1.027E+02   -1.026E+02   -1.025E+02   -1.024E+02   -1.023E+02   -1.021E+02   -1.020E+02   -1.019E+02   -1.018E+02   -1.017E+02
    -1.015E+02   -1.014E+02   -1.013E+02   -1.011E+02   -1.010E+02   -1.008E+02   -1.007E+02   -1.005E+02   -1.003E+02   -1.002E+02
    -1.000E+02   -9.983E+01   -9.965E+01   -9.947E+01   -9.929E+01   -9.910E+01   -9.890E+01   -9.871E+01   -9.851E+01   -9.830E+01
    -9.809E+01   -9.788E+01   -9.766E+01   -9.744E+01   -9.721E+01   -9.699E+01   -9.675E+01   -9.651E+01   -9.627E+01   -9.603E+01
    -9.577E+01   -9.552E+01   -9.526E+01   -9.500E+01   -9.473E+01   -9.446E+01   -9.418E+01   -9.390E+01   -9.362E+01   -9.333E+01
    -9.303E+01   -9.273E+01   -9.243E+01   -9.213E+01   -9.181E+01   -9.150E+01   -9.118E+01   -9.086E+01   -9.053E+01   -9.020E+01
    -8.987E+01   -8.953E+01   -8.919E+01   -8.885E+01   -8.850E+01   -8.815E+01   -8.780E+01   -8.744E+01   -8.708E+01   -8.671E+01
    -8.635E+01   -8.598E+01   -8.561E+01   -8.523E+01   -8.486E+01   -8.448E+01   -8.409E+01   -8.371E+01   -8.332E+01   -8.293E+01
    -8.254E+01   -8.215E+01   -8.175E+01   -8.135E+01   -8.095E+01   -8.055E+01   -8.015E+01   -7.974E+01   -7.933E+01   -7.893E+01
    -7.852E+01   -7.810E+01   -7.769E+01   -7.728E+01   -7.686E+01   -7.645E+01   -7.603E+01   -7.561E+01   -7.519E+01   -7.477E+01
    -7.435E+01   -7.393E+01   -7.351E+01   -7.308E+01   -7.266E+01   -7.224E+01   -7.181E+01   -7.139E+01   -7.097E+01   -7.054E+01
    -7.012E+01   -6.970E+01   -6.927E+01   -6.885E+01   -6.842E+01   -6.800E+01   -6.758E+01   -6.716E+01   -6.674E+01   -6.632E+01
    -6.590E+01   -6.548E+01   -6.506E+01   -6.464E+01   -6.423E+01   -6.381E+01   -6.340E+01   -6.299E+01   -6.258E+01   -6.217E+01
    -6.176E+01   -6.135E+01   -6.095E+01   -6.054E+01   -6.014E+01   -5.974E+01   -5.935E+01   -5.895E+01   -5.856E+01   -5.817E+01
    -5.778E+01   -5.739E+01   -5.701E+01   -5.663E+01   -5.625E+01   -5.587E+01   -5.550E+01   -5.513E+01   -5.476E+01   -5.440E+01
    -5.404E+01   -5.368E+01   -5.332E+01   -5.297E+01   -5.262E+01   -5.228E+01   -5.193E+01   -5.160E+01   -5.126E+01   -5.093E+01
    -5.060E+01   -5.028E+01   -4.996E+01   -4.964E+01   -4.933E+01   -4.902E+01   -4.872E+01   -4.842E+01   -4.813E+01   -4.784E+01
    -4.755E+01   -4.727E+01   -4.699E+01   -4.672E+01   -4.645E+01   -4.619E+01   -4.593E+01   -4.568E+01   -4.543E+01   -4.519E+01
    -4.495E+01   -4.472E+01   -4.449E+01   -4.426E+01   -4.404E+01   -4.382E+01   -4.361E+01   -4.340E+01   -4.320E+01   -4.300E+01
    -4.281E+01   -4.262E+01   -4.243E+01   -4.225E+01   -4.207E+01   -4.190E+01   -4.173E+01   -4.157E+01   -4.141E+01   -4.125E+01
    -4.110E+01   -4.096E+01   -4.081E+01   -4.067E+01   -4.054E+01   -4.041E+01   -4.028E+01   -4.016E+01   -4.004E+01   -3.992E+01
    -3.981E+01   -3.970E+01   -3.960E+01   -3.950E+01   -3.941E+01   -3.931E+01   -3.922E+01   -3.914E+01   -3.906E+01   -3.898E+01
    -3.891E+01   -3.884E+01   -3.877E+01   -3.871E+01   -3.865E+01   -3.860E+01   -3.854E+01   -3.850E+01   -3.845E+01   -3.841E+01
    -3.837E+01   -3.834E+01   -3.830E+01   -3.828E+01   -3.825E+01   -3.823E+01   -3.821E+01   -3.820E+01   -3.819E+01   -3.818E+01
    -3.817E+01   -3.817E+01   -3.817E+01   -3.817E+01   -3.818E+01   -3.819E+01   -3.820E+01   -3.822E+01   -3.824E+01   -3.826E+01
    -3.828E+01   -3.831E+01   -3.834E+01   -3.837E+01   -3.841E+01   -3.845E+01   -3.849E+01   -3.853E+01   -3.858E+01   -3.863E+01
    -3.868E+01   -3.874E+01   -3.879E+01   -3.885E+01   -3.892E+01   -3.898E+01   -3.905E+01   -3.912E+01   -3.919E+01   -3.926E+01
    -3.934E+01   -3.942E+01   -3.950E+01   -3.959E+01   -3.967E+01   -3.976E+01   -3.985E+01   -3.994E+01   -4.004E+01   -4.013E+01
    -4.023E+01   -4.033E+01   -4.044E+01   -4.054E+01   -4.065E+01   -4.076E+01   -4.087E+01   -4.098E+01   -4.109E+01   -4.121E+01
    -4.133E+01   -4.145E+01   -4.157E+01   -4.169E+01   -4.182E+01   -4.194E+01   -4.207E+01   -4.220E+01
 Ala      Conc. = 3.66E+03
