 LCModel (Version 6.3-1L) Copyright: S.W. Provencher.          Ref.: Magn. Reson. Med. 30:672-679 (1993).                
 Slice#2 Row#11 Col#4  K_02_press_1_raw_act
 36 lines in following concentration table = NCONC+1
    Conc.  %SD /Cr+PCr  Metabolite                                         
  301.048  70%   0.164 Ala                                                 
    0.000 999%   0.000 Asp                                                 
 1.02E+03  31%   0.553 Cr                                                  
  823.234  38%   0.447 PCr                                                 
  227.115 108%   0.123 GABA                                                
  207.665 103%   0.113 Glc                                                 
 1.37E+03  30%   0.745 Gln                                                 
 2.08E+03  23%   1.128 Glu                                                 
  810.539   4%   0.440 GPC                                                 
    0.000 999%   0.000 PCh                                                 
  950.715  10%   0.516 GSH                                                 
 3.99E+03  10%   2.167 Ins                                                 
   44.560 497% 2.4E-02 Lac                                                 
 3.24E+03   3%   1.758 NAA                                                 
    0.000 999%   0.000 NAAG                                                
  386.906  10%   0.210 Scyllo                                              
    0.000 999%   0.000 Tau                                                 
    0.000 999%   0.000 -CrCH2                                              
  810.539   4%   0.440 GPC+PCh                                             
 3.24E+03   3%   1.758 NAA+NAAG                                            
 1.84E+03   4%   1.000 Cr+PCr                                              
 3.45E+03  23%   1.872 Glu+Gln                                             
  342.685 123%   0.186 Lip13a                                              
    0.000 999%   0.000 Lip13b                                              
   15.370 979% 8.3E-03 Lip09                                               
 1.23E+03  16%   0.668 MM09                                                
   61.603 148% 3.3E-02 Lip20                                               
 1.72E+03  22%   0.936 MM20                                                
  392.222  34%   0.213 MM12                                                
 2.98E+03  10%   1.617+MM14                                                
 1.25E+03  17%   0.681 MM17                                                
  342.685 123%   0.186 Lip13a+Lip13b                                       
 3.71E+03  11%   2.016 MM14+Lip13a+Lip13b+MM12                             
 1.24E+03  15%   0.676 MM09+Lip09                                          
 1.78E+03  20%   0.969 MM20+Lip20                                          
   6 lines in following misc. output table
  FWHM = 0.076 ppm    S/N =  14                                            
  Data shift = 0.015 ppm                                                   
  Ph: -52 deg     -17.7 deg/ppm                                            
  alphaB,S = 7.0E-01,   2.0E+02                                            
   14 spline knots.   Ns =11(1)                                            
  (20) 6 infls.   ( 7) 1 extrs.                                            
  498 points on ppm-axis = NY
      4.000000     3.992357     3.984714     3.977070     3.969427     3.961784     3.954141     3.946497     3.938854     3.931211
      3.923568     3.915925     3.908281     3.900638     3.892995     3.885352     3.877708     3.870065     3.862422     3.854779
      3.847136     3.839492     3.831849     3.824206     3.816563     3.808919     3.801276     3.793633     3.785990     3.778347
      3.770703     3.763060     3.755417     3.747774     3.740130     3.732487     3.724844     3.717201     3.709558     3.701914
      3.694271     3.686628     3.678985     3.671341     3.663698     3.656055     3.648412     3.640769     3.633125     3.625482
      3.617839     3.610196     3.602552     3.594909     3.587266     3.579623     3.571980     3.564336     3.556693     3.549050
      3.541407     3.533763     3.526120     3.518477     3.510834     3.503191     3.495547     3.487904     3.480261     3.472618
      3.464974     3.457331     3.449688     3.442045     3.434402     3.426758     3.419115     3.411472     3.403829     3.396185
      3.388542     3.380899     3.373256     3.365613     3.357969     3.350326     3.342683     3.335040     3.327396     3.319753
      3.312110     3.304467     3.296824     3.289180     3.281537     3.273894     3.266251     3.258607     3.250964     3.243321
      3.235678     3.228034     3.220391     3.212748     3.205105     3.197462     3.189818     3.182175     3.174532     3.166889
      3.159245     3.151602     3.143959     3.136316     3.128673     3.121029     3.113386     3.105743     3.098100     3.090456
      3.082813     3.075170     3.067527     3.059884     3.052240     3.044597     3.036954     3.029311     3.021667     3.014024
      3.006381     2.998738     2.991095     2.983451     2.975808     2.968165     2.960522     2.952878     2.945235     2.937592
      2.929949     2.922306     2.914662     2.907019     2.899376     2.891733     2.884089     2.876446     2.868803     2.861160
      2.853517     2.845873     2.838230     2.830587     2.822944     2.815300     2.807657     2.800014     2.792371     2.784728
      2.777084     2.769441     2.761798     2.754155     2.746511     2.738868     2.731225     2.723582     2.715939     2.708295
      2.700652     2.693009     2.685366     2.677722     2.670079     2.662436     2.654793     2.647150     2.639506     2.631863
      2.624220     2.616577     2.608933     2.601290     2.593647     2.586004     2.578361     2.570717     2.563074     2.555431
      2.547788     2.540144     2.532501     2.524858     2.517215     2.509572     2.501928     2.494285     2.486642     2.478999
      2.471355     2.463712     2.456069     2.448426     2.440783     2.433139     2.425496     2.417853     2.410210     2.402566
      2.394923     2.387280     2.379637     2.371994     2.364350     2.356707     2.349064     2.341421     2.333777     2.326134
      2.318491     2.310848     2.303205     2.295561     2.287918     2.280275     2.272632     2.264988     2.257345     2.249702
      2.242059     2.234416     2.226772     2.219129     2.211486     2.203843     2.196199     2.188556     2.180913     2.173270
      2.165627     2.157983     2.150340     2.142697     2.135054     2.127410     2.119767     2.112124     2.104481     2.096838
      2.089194     2.081551     2.073908     2.066265     2.058621     2.050978     2.043335     2.035692     2.028049     2.020405
      2.012762     2.005119     1.997476     1.989833     1.982190     1.974546     1.966903     1.959260     1.951617     1.943974
      1.936331     1.928688     1.921045     1.913402     1.905759     1.898115     1.890472     1.882829     1.875186     1.867543
      1.859900     1.852257     1.844614     1.836971     1.829327     1.821684     1.814041     1.806398     1.798755     1.791112
      1.783469     1.775826     1.768183     1.760540     1.752896     1.745253     1.737610     1.729967     1.722324     1.714681
      1.707038     1.699395     1.691752     1.684108     1.676465     1.668822     1.661179     1.653536     1.645893     1.638250
      1.630607     1.622964     1.615321     1.607677     1.600034     1.592391     1.584748     1.577105     1.569462     1.561819
      1.554176     1.546533     1.538890     1.531246     1.523603     1.515960     1.508317     1.500674     1.493031     1.485388
      1.477745     1.470102     1.462458     1.454815     1.447172     1.439529     1.431886     1.424243     1.416600     1.408957
      1.401314     1.393671     1.386027     1.378384     1.370741     1.363098     1.355455     1.347812     1.340169     1.332526
      1.324883     1.317240     1.309596     1.301953     1.294310     1.286667     1.279024     1.271381     1.263738     1.256095
      1.248452     1.240808     1.233165     1.225522     1.217879     1.210236     1.202593     1.194950     1.187307     1.179664
      1.172021     1.164377     1.156734     1.149091     1.141448     1.133805     1.126162     1.118519     1.110876     1.103233
      1.095590     1.087946     1.080303     1.072660     1.065017     1.057374     1.049731     1.042088     1.034445     1.026802
      1.019158     1.011515     1.003872     0.996229     0.988586     0.980943     0.973300     0.965657     0.958014     0.950371
      0.942727     0.935084     0.927441     0.919798     0.912155     0.904512     0.896869     0.889226     0.881583     0.873940
      0.866296     0.858653     0.851010     0.843367     0.835724     0.828081     0.820438     0.812795     0.805152     0.797508
      0.789865     0.782222     0.774579     0.766936     0.759293     0.751650     0.744007     0.736364     0.728721     0.721077
      0.713434     0.705791     0.698148     0.690505     0.682862     0.675219     0.667576     0.659933     0.652290     0.644646
      0.637003     0.629360     0.621717     0.614074     0.606431     0.598788     0.591145     0.583502     0.575858     0.568215
      0.560572     0.552929     0.545286     0.537643     0.530000     0.522357     0.514714     0.507071     0.499427     0.491784
      0.484141     0.476498     0.468855     0.461212     0.453569     0.445925     0.438282     0.430639     0.422996     0.415353
      0.407710     0.400067     0.392424     0.384780     0.377137     0.369494     0.361851     0.354208     0.346565     0.338922
      0.331278     0.323635     0.315992     0.308349     0.300706     0.293063     0.285420     0.277777     0.270133     0.262490
      0.254847     0.247204     0.239561     0.231918     0.224275     0.216631     0.208988     0.201345
 NY phased data points follow
  -2.08955E+02 -2.07444E+02 -2.02492E+02 -1.96564E+02 -1.91946E+02 -1.90597E+02 -1.77590E+02 -1.72712E+02 -1.69042E+02 -1.63945E+02
  -1.63989E+02 -1.61592E+02 -1.63836E+02 -1.66461E+02 -1.69061E+02 -1.72852E+02 -1.75767E+02 -1.75742E+02 -1.74987E+02 -1.74316E+02
  -1.75728E+02 -1.68526E+02 -1.70052E+02 -1.68906E+02 -1.61367E+02 -1.63117E+02 -1.57125E+02 -1.57276E+02 -1.54912E+02 -1.50307E+02
  -1.45709E+02 -1.44222E+02 -1.43301E+02 -1.41327E+02 -1.44002E+02 -1.41986E+02 -1.41797E+02 -1.38750E+02 -1.36018E+02 -1.34663E+02
  -1.35477E+02 -1.32238E+02 -1.30559E+02 -1.26781E+02 -1.25306E+02 -1.25599E+02 -1.25690E+02 -1.19305E+02 -1.19607E+02 -1.20608E+02
  -1.22416E+02 -1.18093E+02 -1.19534E+02 -1.21515E+02 -1.19919E+02 -1.17938E+02 -1.16084E+02 -1.18866E+02 -1.18570E+02 -1.16553E+02
  -1.17536E+02 -1.15669E+02 -1.16956E+02 -1.13458E+02 -1.17937E+02 -1.15276E+02 -1.13851E+02 -1.14677E+02 -1.11245E+02 -1.13008E+02
  -1.05583E+02 -1.08977E+02 -1.03251E+02 -1.04605E+02 -1.03554E+02 -1.00334E+02 -1.00298E+02 -1.01039E+02 -9.78077E+01 -9.63375E+01
  -9.28530E+01 -9.34208E+01 -8.87993E+01 -9.12307E+01 -9.02314E+01 -8.94565E+01 -8.99874E+01 -8.98357E+01 -8.56436E+01 -8.42797E+01
  -7.70385E+01 -7.97190E+01 -7.99930E+01 -7.31397E+01 -7.28389E+01 -6.89050E+01 -6.28233E+01 -5.94030E+01 -5.45576E+01 -5.47646E+01
  -4.69025E+01 -3.90219E+01 -3.60622E+01 -3.94029E+01 -4.27770E+01 -4.62542E+01 -5.18441E+01 -5.34658E+01 -5.76911E+01 -6.58192E+01
  -6.45589E+01 -6.82592E+01 -6.97358E+01 -6.75494E+01 -6.83449E+01 -6.87237E+01 -6.73931E+01 -6.77730E+01 -6.31943E+01 -6.10095E+01
  -6.19161E+01 -5.21226E+01 -5.15699E+01 -4.24327E+01 -3.71795E+01 -2.95830E+01 -2.81266E+01 -2.39854E+01 -2.76392E+01 -3.12212E+01
  -3.42496E+01 -3.91545E+01 -4.34961E+01 -4.43598E+01 -5.13665E+01 -5.35819E+01 -5.66770E+01 -6.02636E+01 -5.82985E+01 -6.06442E+01
  -5.90898E+01 -6.37495E+01 -6.01037E+01 -5.88035E+01 -5.57259E+01 -5.79945E+01 -6.11425E+01 -6.14823E+01 -5.35219E+01 -5.58559E+01
  -5.55906E+01 -5.73893E+01 -5.25562E+01 -5.46786E+01 -5.15863E+01 -5.42611E+01 -4.91136E+01 -5.24718E+01 -5.10855E+01 -5.14524E+01
  -5.18934E+01 -5.38233E+01 -5.36931E+01 -5.23076E+01 -5.11956E+01 -5.10749E+01 -5.16013E+01 -5.03059E+01 -5.12601E+01 -5.81425E+01
  -5.41507E+01 -5.65190E+01 -5.60241E+01 -5.71997E+01 -5.87216E+01 -5.72491E+01 -5.78531E+01 -5.91909E+01 -5.36414E+01 -5.31598E+01
  -5.49302E+01 -5.35033E+01 -5.53262E+01 -5.69961E+01 -4.91706E+01 -4.82117E+01 -4.51620E+01 -4.81182E+01 -4.54197E+01 -4.25610E+01
  -3.96585E+01 -3.87640E+01 -3.71504E+01 -3.79898E+01 -3.85237E+01 -3.40745E+01 -3.55563E+01 -3.73278E+01 -3.60041E+01 -3.26755E+01
  -3.52981E+01 -3.12074E+01 -3.37574E+01 -3.17103E+01 -3.35248E+01 -3.13203E+01 -3.18966E+01 -3.46975E+01 -3.34495E+01 -3.40311E+01
  -3.34701E+01 -3.47241E+01 -2.70820E+01 -2.64559E+01 -2.81516E+01 -2.45458E+01 -2.46627E+01 -2.30356E+01 -2.50613E+01 -2.83018E+01
  -2.74814E+01 -2.96957E+01 -2.84541E+01 -2.40306E+01 -2.65560E+01 -2.13840E+01 -2.19310E+01 -2.15859E+01 -2.06234E+01 -1.85263E+01
  -1.83969E+01 -2.24200E+01 -1.52991E+01 -1.96527E+01 -1.48938E+01 -1.82980E+01 -1.48763E+01 -1.62339E+01 -1.66814E+01 -1.34824E+01
  -2.20039E+01 -2.01498E+01 -1.73484E+01 -1.84563E+01 -1.08751E+01 -1.49173E+01 -8.61130E+00 -9.40845E+00 -9.03485E+00 -5.02069E+00
  -6.43521E-02  2.68213E+00  5.07964E+00  1.01130E+01  2.02226E+01  3.03950E+01  3.62284E+01  4.13913E+01  5.39835E+01  6.62930E+01
   7.10221E+01  6.33576E+01  5.39923E+01  4.40280E+01  4.00453E+01  3.10940E+01  2.28907E+01  2.08739E+01  1.17303E+01  7.40654E+00
   8.61938E+00  2.76493E+00 -2.71296E+00 -4.05997E+00 -4.55937E+00 -8.19102E+00 -8.03725E+00 -5.26876E+00 -1.58073E+00 -4.53671E+00
  -5.42912E+00 -6.80738E+00 -5.01230E+00 -7.47493E+00 -9.41602E+00 -6.66865E+00 -6.68951E+00 -4.34537E+00 -8.32662E+00 -8.12119E+00
  -3.74925E+00 -5.51371E+00 -3.81521E+00 -3.05861E+00 -2.87469E+00 -2.01895E+00 -4.35582E+00 -5.52969E+00 -1.06161E+00  7.68837E-01
  -1.23535E+00  6.85620E-01  7.62625E-01 -2.47020E+00  3.38425E-01  4.07384E+00  1.79796E+00  6.19069E+00  5.32752E+00  5.67832E+00
   1.10992E+01  6.16447E+00  1.08772E+01  1.29394E+01  1.39370E+01  1.15774E+01  1.27429E+01  1.15937E+01  1.33039E+01  1.26065E+01
   1.50876E+01  1.41089E+01  1.56655E+01  1.92470E+01  1.55676E+01  1.96446E+01  2.06418E+01  1.92495E+01  1.95052E+01  1.65942E+01
   2.17907E+01  2.12045E+01  2.19507E+01  2.30243E+01  2.36877E+01  2.25912E+01  2.14524E+01  2.13122E+01  2.01038E+01  1.80582E+01
   1.90792E+01  1.92245E+01  1.48648E+01  1.85031E+01  1.57709E+01  1.35745E+01  9.06176E+00  1.11396E+01  8.92689E+00  1.15917E+01
   7.27187E+00  6.73717E+00  2.25543E+00  2.01242E+00  1.65584E+00 -1.01901E+00  2.70663E+00  3.25881E+00  1.91583E-01  4.99193E-01
   2.79270E+00  1.92365E+00  1.43188E+00  4.58330E-01 -7.15678E-01  4.28138E+00  2.47205E-01 -2.85284E-01 -6.56021E-01  1.57167E+00
  -4.21732E-01  8.43398E-01  3.81293E+00 -2.64441E-01  1.77945E+00  1.74789E+00  2.23301E-01  8.57459E-01 -1.14577E+00  2.01190E-01
  -1.81182E+00 -1.98147E+00 -3.70391E-01 -4.18743E+00 -3.45836E+00 -5.09762E+00  9.71972E-02 -2.05793E+00 -4.29927E+00 -3.37966E+00
  -7.80203E-03 -1.94018E-01 -2.98913E+00 -2.84089E+00 -7.86240E-01 -2.07012E+00  2.25571E-01  7.30766E-01  5.03811E+00  3.61110E+00
   5.31647E+00  5.24067E+00  3.86858E+00  5.74725E+00  3.68881E+00  5.88663E+00  6.66567E+00  1.05421E+01  5.30602E+00  6.15019E+00
   7.26172E+00  8.25911E+00  3.60996E+00  3.42070E+00  4.62473E+00  6.01247E+00  8.26443E-01  2.04658E+00  2.01848E-01  7.74203E-01
  -1.48786E+00  8.34565E-01  3.17863E+00  1.10584E+00  1.06424E-01  2.18266E+00  3.59462E+00  9.67568E-01  4.86277E-01 -2.16058E+00
  -1.04283E+00 -4.18677E-01 -9.14433E-01 -3.34344E+00  3.66417E-01 -2.83674E+00 -3.48796E+00 -3.99912E+00  5.00789E-02  5.63489E-01
  -4.54948E+00 -6.20369E-01 -9.17566E-01 -2.49044E+00  1.32900E-01  4.86845E-01 -3.07533E-01 -1.08385E+00 -8.03693E-01 -3.69553E-01
   4.89472E-01 -1.18812E+00 -1.99265E-01 -2.14640E+00 -7.20234E-02 -2.22089E+00 -6.99414E-01 -2.86034E-01  1.90703E+00  2.35717E+00
   4.38973E-01  1.01744E+00  1.96892E+00  2.55615E+00  1.85468E+00  6.94599E-01  1.28379E-01 -2.65836E-01 -1.11213E+00 -7.80670E-01
   9.04426E-01  3.19605E+00 -4.18480E-01  1.83596E+00  1.78931E-01  5.23255E-01  1.67367E+00  1.17661E+00  8.74577E-02  3.00736E+00
   2.90990E-01  3.52111E+00 -7.81135E-01  2.08655E+00  1.78022E+00  2.93270E+00  1.89054E+00  2.80077E+00  1.19143E-01  2.14031E+00
  -2.26284E-01  4.02827E+00  2.08565E+00  2.49464E+00  1.58734E+00  6.91934E-01  1.92673E+00  2.81436E-01
 NY points of the fit to the data follow
  -2.02097E+02 -1.99837E+02 -1.97244E+02 -1.94091E+02 -1.90308E+02 -1.85970E+02 -1.81421E+02 -1.76719E+02 -1.71903E+02 -1.67797E+02
  -1.65447E+02 -1.65103E+02 -1.66077E+02 -1.67453E+02 -1.68734E+02 -1.69877E+02 -1.70901E+02 -1.71817E+02 -1.72389E+02 -1.72166E+02
  -1.71173E+02 -1.70268E+02 -1.69474E+02 -1.68085E+02 -1.65780E+02 -1.63050E+02 -1.60134E+02 -1.56843E+02 -1.52950E+02 -1.48667E+02
  -1.44855E+02 -1.42335E+02 -1.41312E+02 -1.41403E+02 -1.41932E+02 -1.42198E+02 -1.41894E+02 -1.41331E+02 -1.40637E+02 -1.39369E+02
  -1.37212E+02 -1.34680E+02 -1.32358E+02 -1.29954E+02 -1.26916E+02 -1.23712E+02 -1.21332E+02 -1.20414E+02 -1.20815E+02 -1.21920E+02
  -1.22948E+02 -1.23569E+02 -1.23787E+02 -1.23616E+02 -1.23069E+02 -1.22084E+02 -1.20737E+02 -1.19386E+02 -1.18356E+02 -1.17625E+02
  -1.16900E+02 -1.16237E+02 -1.15728E+02 -1.15199E+02 -1.14387E+02 -1.13213E+02 -1.11807E+02 -1.10306E+02 -1.08749E+02 -1.07190E+02
  -1.05815E+02 -1.04726E+02 -1.03862E+02 -1.03121E+02 -1.02364E+02 -1.01612E+02 -1.00536E+02 -9.91554E+01 -9.80286E+01 -9.71120E+01
  -9.60474E+01 -9.46703E+01 -9.31576E+01 -9.17335E+01 -9.01774E+01 -8.82790E+01 -8.63893E+01 -8.51039E+01 -8.46865E+01 -8.47858E+01
  -8.45295E+01 -8.25589E+01 -7.95212E+01 -7.68771E+01 -7.43397E+01 -7.10020E+01 -6.65517E+01 -6.15505E+01 -5.64406E+01 -5.08350E+01
  -4.43455E+01 -3.84700E+01 -3.57858E+01 -3.71501E+01 -4.13045E+01 -4.63304E+01 -5.11272E+01 -5.54940E+01 -5.94183E+01 -6.28335E+01
  -6.55835E+01 -6.75451E+01 -6.91672E+01 -7.11571E+01 -7.32551E+01 -7.34181E+01 -7.09961E+01 -6.80459E+01 -6.53293E+01 -6.21952E+01
  -5.80266E+01 -5.30640E+01 -4.78745E+01 -4.23844E+01 -3.62946E+01 -3.02974E+01 -2.61677E+01 -2.53498E+01 -2.76412E+01 -3.15110E+01
  -3.56050E+01 -3.93502E+01 -4.28101E+01 -4.61805E+01 -4.94219E+01 -5.21930E+01 -5.43215E+01 -5.61479E+01 -5.79902E+01 -5.92424E+01
  -5.91520E+01 -5.84512E+01 -5.78027E+01 -5.73425E+01 -5.70739E+01 -5.69545E+01 -5.68645E+01 -5.66765E+01 -5.64110E+01 -5.61720E+01
  -5.60502E+01 -5.60094E+01 -5.59822E+01 -5.59153E+01 -5.57950E+01 -5.56500E+01 -5.54972E+01 -5.53163E+01 -5.51376E+01 -5.50160E+01
  -5.49226E+01 -5.47351E+01 -5.43668E+01 -5.39083E+01 -5.35853E+01 -5.35543E+01 -5.37079E+01 -5.37994E+01 -5.38093E+01 -5.38383E+01
  -5.39627E+01 -5.40586E+01 -5.39989E+01 -5.38557E+01 -5.37939E+01 -5.37877E+01 -5.36871E+01 -5.33379E+01 -5.27844E+01 -5.22656E+01
  -5.17848E+01 -5.11602E+01 -5.03273E+01 -4.94113E+01 -4.85034E+01 -4.75608E+01 -4.63843E+01 -4.49960E+01 -4.34747E+01 -4.19572E+01
  -4.06296E+01 -3.96120E+01 -3.89367E+01 -3.84200E+01 -3.79721E+01 -3.75537E+01 -3.71142E+01 -3.64862E+01 -3.55446E+01 -3.44420E+01
  -3.32413E+01 -3.21750E+01 -3.15688E+01 -3.14403E+01 -3.16372E+01 -3.19322E+01 -3.24340E+01 -3.32124E+01 -3.37995E+01 -3.36607E+01
  -3.27225E+01 -3.15332E+01 -3.03605E+01 -2.89654E+01 -2.73768E+01 -2.62221E+01 -2.59556E+01 -2.64094E+01 -2.71619E+01 -2.78973E+01
  -2.84770E+01 -2.87116E+01 -2.83072E+01 -2.72432E+01 -2.57344E+01 -2.42320E+01 -2.29908E+01 -2.20021E+01 -2.12773E+01 -2.07243E+01
  -2.02250E+01 -1.97107E+01 -1.90769E+01 -1.82279E+01 -1.72149E+01 -1.61886E+01 -1.53508E+01 -1.48005E+01 -1.46373E+01 -1.49321E+01
  -1.55358E+01 -1.61672E+01 -1.64665E+01 -1.62099E+01 -1.54696E+01 -1.44820E+01 -1.33372E+01 -1.21107E+01 -1.05914E+01 -6.98003E+00
  -1.45907E+00  3.38059E+00  7.88043E+00  1.36375E+01  2.11645E+01  2.92699E+01  3.70631E+01  4.53176E+01  5.46060E+01  6.28741E+01
   6.64766E+01  6.37644E+01  5.64876E+01  4.77622E+01  3.94402E+01  3.18098E+01  2.47779E+01  1.83834E+01  1.29490E+01  8.84830E+00
   5.59194E+00  1.90735E+00 -2.41970E+00 -5.23389E+00 -5.86058E+00 -5.97972E+00 -6.02815E+00 -6.05052E+00 -6.07445E+00 -6.12259E+00
  -6.15603E+00 -6.15525E+00 -6.11379E+00 -6.03524E+00 -5.92602E+00 -5.80658E+00 -5.68228E+00 -5.54353E+00 -5.38902E+00 -5.21627E+00
  -5.02042E+00 -4.80079E+00 -4.55377E+00 -4.27455E+00 -3.96271E+00 -3.60993E+00 -3.20968E+00 -2.75972E+00 -2.25411E+00 -1.68485E+00
  -1.04986E+00 -3.51591E-01  4.07939E-01  1.22487E+00  2.08992E+00  2.99128E+00  3.91708E+00  4.85214E+00  5.78175E+00  6.69181E+00
   7.56967E+00  8.40576E+00  9.19536E+00  9.94013E+00  1.06506E+01  1.13538E+01  1.20930E+01  1.27939E+01  1.33987E+01  1.39974E+01
   1.46533E+01  1.53413E+01  1.59963E+01  1.66005E+01  1.72580E+01  1.79966E+01  1.85987E+01  1.89423E+01  1.91387E+01  1.93923E+01
   1.97854E+01  2.02531E+01  2.07416E+01  2.12719E+01  2.18192E+01  2.22377E+01  2.23443E+01  2.20216E+01  2.12927E+01  2.03120E+01
   1.92342E+01  1.80512E+01  1.67129E+01  1.52736E+01  1.38312E+01  1.24344E+01  1.10371E+01  9.59223E+00  8.19347E+00  6.97321E+00
   5.93076E+00  5.04694E+00  4.31145E+00  3.71991E+00  3.25489E+00  2.88151E+00  2.56388E+00  2.27934E+00  2.02150E+00  1.79541E+00
   1.60798E+00  1.44711E+00  1.29273E+00  1.14222E+00  9.97429E-01  8.55530E-01  7.06260E-01  5.42725E-01  3.77419E-01  2.18390E-01
   6.19954E-02 -9.27102E-02 -2.45090E-01 -3.93811E-01 -5.37105E-01 -6.72967E-01 -7.99364E-01 -9.14328E-01 -1.01593E+00 -1.10215E+00
  -1.17089E+00 -1.22000E+00 -1.24734E+00 -1.25082E+00 -1.22821E+00 -1.17712E+00 -1.09503E+00 -9.79440E-01 -8.28019E-01 -6.38660E-01
  -4.09544E-01 -1.39298E-01  1.72734E-01  5.26143E-01  9.19227E-01  1.34885E+00  1.81034E+00  2.29739E+00  2.80193E+00  3.31416E+00
   3.82278E+00  4.31543E+00  4.77919E+00  5.20104E+00  5.56841E+00  5.86975E+00  6.09529E+00  6.23758E+00  6.29190E+00  6.25640E+00
   6.13226E+00  5.92367E+00  5.63763E+00  5.28361E+00  4.87299E+00  4.41833E+00  3.93273E+00  3.42923E+00  2.92031E+00  2.41746E+00
   1.93069E+00  1.46828E+00  1.03661E+00  6.40271E-01  2.82219E-01 -3.61077E-02 -3.14628E-01 -5.54416E-01 -7.57403E-01 -9.26058E-01
  -1.06315E+00 -1.17161E+00 -1.25447E+00 -1.31475E+00 -1.35527E+00 -1.37861E+00 -1.38702E+00 -1.38254E+00 -1.36703E+00 -1.34216E+00
  -1.30933E+00 -1.26970E+00 -1.22423E+00 -1.17380E+00 -1.11924E+00 -1.06124E+00 -1.00039E+00 -9.37133E-01 -8.71858E-01 -8.04983E-01
  -7.36918E-01 -6.68013E-01 -5.98520E-01 -5.28607E-01 -4.58384E-01 -3.87999E-01 -3.17595E-01 -2.47255E-01 -1.76991E-01 -1.06811E-01
  -3.67734E-02  3.30244E-02  1.02507E-01  1.71673E-01  2.40555E-01  3.09156E-01  3.77422E-01  4.45279E-01  5.12704E-01  5.79735E-01
   6.46419E-01  7.12749E-01  7.78669E-01  8.44136E-01  9.09169E-01  9.73826E-01  1.03814E+00  1.10209E+00  1.16562E+00  1.22873E+00
   1.29145E+00  1.35386E+00  1.41597E+00  1.47775E+00  1.53915E+00  1.60021E+00  1.66100E+00  1.72157E+00  1.78192E+00  1.84202E+00
   1.90186E+00  1.96150E+00  2.02103E+00  2.08051E+00  2.13991E+00  2.19923E+00  2.25854E+00  2.31793E+00
 NY background values follow
    -2.164E+02   -2.148E+02   -2.132E+02   -2.116E+02   -2.100E+02   -2.085E+02   -2.069E+02   -2.053E+02   -2.037E+02   -2.021E+02
    -2.005E+02   -1.990E+02   -1.974E+02   -1.958E+02   -1.942E+02   -1.927E+02   -1.911E+02   -1.895E+02   -1.880E+02   -1.864E+02
    -1.849E+02   -1.833E+02   -1.818E+02   -1.802E+02   -1.787E+02   -1.772E+02   -1.756E+02   -1.741E+02   -1.726E+02   -1.711E+02
    -1.696E+02   -1.681E+02   -1.666E+02   -1.651E+02   -1.637E+02   -1.622E+02   -1.608E+02   -1.593E+02   -1.579E+02   -1.564E+02
    -1.550E+02   -1.536E+02   -1.522E+02   -1.508E+02   -1.494E+02   -1.481E+02   -1.467E+02   -1.453E+02   -1.440E+02   -1.427E+02
    -1.413E+02   -1.400E+02   -1.387E+02   -1.374E+02   -1.362E+02   -1.349E+02   -1.336E+02   -1.324E+02   -1.311E+02   -1.299E+02
    -1.287E+02   -1.275E+02   -1.263E+02   -1.251E+02   -1.239E+02   -1.228E+02   -1.216E+02   -1.205E+02   -1.193E+02   -1.182E+02
    -1.171E+02   -1.160E+02   -1.149E+02   -1.138E+02   -1.128E+02   -1.117E+02   -1.107E+02   -1.096E+02   -1.086E+02   -1.076E+02
    -1.066E+02   -1.056E+02   -1.046E+02   -1.036E+02   -1.026E+02   -1.017E+02   -1.007E+02   -9.981E+01   -9.889E+01   -9.798E+01
    -9.708E+01   -9.619E+01   -9.531E+01   -9.444E+01   -9.358E+01   -9.273E+01   -9.189E+01   -9.106E+01   -9.025E+01   -8.944E+01
    -8.864E+01   -8.785E+01   -8.707E+01   -8.630E+01   -8.554E+01   -8.479E+01   -8.404E+01   -8.331E+01   -8.259E+01   -8.187E+01
    -8.116E+01   -8.047E+01   -7.978E+01   -7.909E+01   -7.842E+01   -7.776E+01   -7.710E+01   -7.645E+01   -7.581E+01   -7.517E+01
    -7.455E+01   -7.393E+01   -7.332E+01   -7.271E+01   -7.212E+01   -7.153E+01   -7.095E+01   -7.037E+01   -6.980E+01   -6.924E+01
    -6.868E+01   -6.814E+01   -6.759E+01   -6.706E+01   -6.653E+01   -6.600E+01   -6.548E+01   -6.497E+01   -6.446E+01   -6.396E+01
    -6.347E+01   -6.298E+01   -6.249E+01   -6.201E+01   -6.153E+01   -6.106E+01   -6.059E+01   -6.013E+01   -5.967E+01   -5.921E+01
    -5.876E+01   -5.831E+01   -5.786E+01   -5.742E+01   -5.698E+01   -5.654E+01   -5.611E+01   -5.568E+01   -5.525E+01   -5.482E+01
    -5.439E+01   -5.397E+01   -5.355E+01   -5.312E+01   -5.270E+01   -5.228E+01   -5.187E+01   -5.145E+01   -5.103E+01   -5.061E+01
    -5.020E+01   -4.978E+01   -4.936E+01   -4.895E+01   -4.853E+01   -4.811E+01   -4.769E+01   -4.727E+01   -4.685E+01   -4.642E+01
    -4.600E+01   -4.557E+01   -4.514E+01   -4.471E+01   -4.428E+01   -4.385E+01   -4.341E+01   -4.298E+01   -4.254E+01   -4.210E+01
    -4.166E+01   -4.123E+01   -4.079E+01   -4.034E+01   -3.990E+01   -3.946E+01   -3.902E+01   -3.858E+01   -3.814E+01   -3.769E+01
    -3.725E+01   -3.681E+01   -3.637E+01   -3.593E+01   -3.549E+01   -3.505E+01   -3.462E+01   -3.418E+01   -3.374E+01   -3.331E+01
    -3.288E+01   -3.245E+01   -3.202E+01   -3.159E+01   -3.116E+01   -3.074E+01   -3.032E+01   -2.990E+01   -2.948E+01   -2.906E+01
    -2.865E+01   -2.824E+01   -2.784E+01   -2.743E+01   -2.703E+01   -2.663E+01   -2.624E+01   -2.585E+01   -2.546E+01   -2.507E+01
    -2.469E+01   -2.431E+01   -2.394E+01   -2.357E+01   -2.320E+01   -2.283E+01   -2.247E+01   -2.211E+01   -2.176E+01   -2.140E+01
    -2.105E+01   -2.071E+01   -2.036E+01   -2.002E+01   -1.969E+01   -1.935E+01   -1.902E+01   -1.869E+01   -1.837E+01   -1.804E+01
    -1.772E+01   -1.741E+01   -1.709E+01   -1.678E+01   -1.647E+01   -1.617E+01   -1.587E+01   -1.557E+01   -1.527E+01   -1.497E+01
    -1.468E+01   -1.439E+01   -1.411E+01   -1.382E+01   -1.354E+01   -1.326E+01   -1.299E+01   -1.271E+01   -1.244E+01   -1.217E+01
    -1.191E+01   -1.164E+01   -1.138E+01   -1.112E+01   -1.087E+01   -1.061E+01   -1.036E+01   -1.012E+01   -9.870E+00   -9.627E+00
    -9.388E+00   -9.152E+00   -8.918E+00   -8.688E+00   -8.460E+00   -8.236E+00   -8.015E+00   -7.798E+00   -7.584E+00   -7.373E+00
    -7.165E+00   -6.961E+00   -6.761E+00   -6.564E+00   -6.371E+00   -6.182E+00   -5.997E+00   -5.815E+00   -5.637E+00   -5.464E+00
    -5.294E+00   -5.128E+00   -4.967E+00   -4.809E+00   -4.656E+00   -4.507E+00   -4.363E+00   -4.223E+00   -4.087E+00   -3.956E+00
    -3.830E+00   -3.708E+00   -3.591E+00   -3.478E+00   -3.371E+00   -3.268E+00   -3.170E+00   -3.077E+00   -2.989E+00   -2.906E+00
    -2.827E+00   -2.753E+00   -2.684E+00   -2.620E+00   -2.559E+00   -2.503E+00   -2.451E+00   -2.404E+00   -2.360E+00   -2.321E+00
    -2.285E+00   -2.253E+00   -2.225E+00   -2.200E+00   -2.179E+00   -2.162E+00   -2.147E+00   -2.137E+00   -2.129E+00   -2.124E+00
    -2.123E+00   -2.124E+00   -2.129E+00   -2.136E+00   -2.145E+00   -2.158E+00   -2.173E+00   -2.190E+00   -2.209E+00   -2.231E+00
    -2.255E+00   -2.282E+00   -2.310E+00   -2.340E+00   -2.372E+00   -2.406E+00   -2.441E+00   -2.478E+00   -2.516E+00   -2.556E+00
    -2.597E+00   -2.640E+00   -2.683E+00   -2.728E+00   -2.773E+00   -2.819E+00   -2.866E+00   -2.914E+00   -2.962E+00   -3.011E+00
    -3.060E+00   -3.108E+00   -3.157E+00   -3.206E+00   -3.255E+00   -3.304E+00   -3.352E+00   -3.399E+00   -3.446E+00   -3.492E+00
    -3.537E+00   -3.582E+00   -3.625E+00   -3.667E+00   -3.708E+00   -3.747E+00   -3.785E+00   -3.821E+00   -3.856E+00   -3.888E+00
    -3.919E+00   -3.947E+00   -3.974E+00   -3.998E+00   -4.020E+00   -4.039E+00   -4.055E+00   -4.069E+00   -4.080E+00   -4.088E+00
    -4.092E+00   -4.094E+00   -4.092E+00   -4.087E+00   -4.079E+00   -4.066E+00   -4.050E+00   -4.030E+00   -4.007E+00   -3.979E+00
    -3.948E+00   -3.913E+00   -3.875E+00   -3.833E+00   -3.788E+00   -3.740E+00   -3.689E+00   -3.635E+00   -3.578E+00   -3.519E+00
    -3.457E+00   -3.392E+00   -3.325E+00   -3.256E+00   -3.185E+00   -3.111E+00   -3.036E+00   -2.959E+00   -2.880E+00   -2.799E+00
    -2.717E+00   -2.634E+00   -2.549E+00   -2.463E+00   -2.376E+00   -2.288E+00   -2.199E+00   -2.110E+00   -2.019E+00   -1.929E+00
    -1.838E+00   -1.746E+00   -1.654E+00   -1.563E+00   -1.471E+00   -1.379E+00   -1.288E+00   -1.197E+00   -1.106E+00   -1.016E+00
    -9.268E-01   -8.382E-01   -7.504E-01   -6.637E-01   -5.778E-01   -4.929E-01   -4.090E-01   -3.259E-01   -2.437E-01   -1.624E-01
    -8.202E-02   -2.457E-03    7.627E-02    1.542E-01    2.313E-01    3.075E-01    3.831E-01    4.578E-01    5.318E-01    6.050E-01
     6.775E-01    7.493E-01    8.204E-01    8.909E-01    9.606E-01    1.030E+00    1.098E+00    1.166E+00    1.233E+00    1.300E+00
     1.366E+00    1.431E+00    1.496E+00    1.561E+00    1.624E+00    1.688E+00    1.751E+00    1.813E+00    1.875E+00    1.936E+00
     1.997E+00    2.058E+00    2.118E+00    2.177E+00    2.237E+00    2.296E+00    2.354E+00    2.413E+00
 Ala      Conc. = 3.01E+02
