 LCModel (Version 6.3-1L) Copyright: S.W. Provencher.          Ref.: Magn. Reson. Med. 30:672-679 (1993).                
 Slice#2 Row#7 Col#14  K_02_press_1_raw_act
 36 lines in following concentration table = NCONC+1
    Conc.  %SD /Cr+PCr  Metabolite                                         
    8.540 146%   0.224 Ala                                                 
    4.358 143%   0.114 Asp                                                 
   10.012 176%   0.263 Cr                                                  
   28.117  76%   0.737 PCr                                                 
    3.524 105% 9.2E-02 GABA                                                
    2.727 138% 7.2E-02 Glc                                                 
   16.637 144%   0.436 Gln                                                 
    6.825 373%   0.179 Glu                                                 
    5.275  68%   0.138 GPC                                                 
    0.000 999%   0.000 PCh                                                 
   15.147  76%   0.397 GSH                                                 
   19.266 165%   0.505 Ins                                                 
   38.011  57%   0.997 Lac                                                 
   52.327  37%   1.372 NAA                                                 
    0.000 999%   0.000 NAAG                                                
    0.616 198% 1.6E-02 Scyllo                                              
    3.063 203% 8.0E-02 Tau                                                 
    4.166 200%   0.109 -CrCH2                                              
    5.275  68%   0.138 GPC+PCh                                             
   52.327  37%   1.372 NAA+NAAG                                            
   38.129  39%   1.000 Cr+PCr                                              
   23.462 133%   0.615 Glu+Gln                                             
 1.59E+04  24% 416.538 Lip13a                                              
  256.834 148%   6.736 Lip13b                                              
 9.89E+03  17% 259.414 Lip09                                               
 6.49E+03  18% 170.243 MM09                                                
    0.000 999%   0.000 Lip20                                               
    0.000 999%   0.000 MM20                                                
 6.17E+03  24% 161.749 MM12                                                
 4.59E+03  32% 120.307 MM14                                                
 7.11E+03  24% 186.552 MM17                                                
 1.61E+04  23% 423.274 Lip13a+Lip13b                                       
 2.69E+04  12% 705.330 MM14+Lip13a+Lip13b+MM12                             
 1.64E+04  10% 429.657 MM09+Lip09                                          
    0.000 999%   0.000 MM20+Lip20                                          
   6 lines in following misc. output table
  FWHM = 0.038 ppm    S/N =  27                                            
  Data shift = 0.031 ppm                                                   
  Ph: -57 deg     -18.2 deg/ppm                                            
  alphaB,S = 3.7E-01,   5.8E+00                                            
   14 spline knots.   Ns = 5(1)                                            
  ( 7) 2 infls.   ( 6) 2 extrs.                                            
  498 points on ppm-axis = NY
      4.000000     3.992357     3.984714     3.977070     3.969427     3.961784     3.954141     3.946497     3.938854     3.931211
      3.923568     3.915925     3.908281     3.900638     3.892995     3.885352     3.877708     3.870065     3.862422     3.854779
      3.847136     3.839492     3.831849     3.824206     3.816563     3.808919     3.801276     3.793633     3.785990     3.778347
      3.770703     3.763060     3.755417     3.747774     3.740130     3.732487     3.724844     3.717201     3.709558     3.701914
      3.694271     3.686628     3.678985     3.671341     3.663698     3.656055     3.648412     3.640769     3.633125     3.625482
      3.617839     3.610196     3.602552     3.594909     3.587266     3.579623     3.571980     3.564336     3.556693     3.549050
      3.541407     3.533763     3.526120     3.518477     3.510834     3.503191     3.495547     3.487904     3.480261     3.472618
      3.464974     3.457331     3.449688     3.442045     3.434402     3.426758     3.419115     3.411472     3.403829     3.396185
      3.388542     3.380899     3.373256     3.365613     3.357969     3.350326     3.342683     3.335040     3.327396     3.319753
      3.312110     3.304467     3.296824     3.289180     3.281537     3.273894     3.266251     3.258607     3.250964     3.243321
      3.235678     3.228034     3.220391     3.212748     3.205105     3.197462     3.189818     3.182175     3.174532     3.166889
      3.159245     3.151602     3.143959     3.136316     3.128673     3.121029     3.113386     3.105743     3.098100     3.090456
      3.082813     3.075170     3.067527     3.059884     3.052240     3.044597     3.036954     3.029311     3.021667     3.014024
      3.006381     2.998738     2.991095     2.983451     2.975808     2.968165     2.960522     2.952878     2.945235     2.937592
      2.929949     2.922306     2.914662     2.907019     2.899376     2.891733     2.884089     2.876446     2.868803     2.861160
      2.853517     2.845873     2.838230     2.830587     2.822944     2.815300     2.807657     2.800014     2.792371     2.784728
      2.777084     2.769441     2.761798     2.754155     2.746511     2.738868     2.731225     2.723582     2.715939     2.708295
      2.700652     2.693009     2.685366     2.677722     2.670079     2.662436     2.654793     2.647150     2.639506     2.631863
      2.624220     2.616577     2.608933     2.601290     2.593647     2.586004     2.578361     2.570717     2.563074     2.555431
      2.547788     2.540144     2.532501     2.524858     2.517215     2.509572     2.501928     2.494285     2.486642     2.478999
      2.471355     2.463712     2.456069     2.448426     2.440783     2.433139     2.425496     2.417853     2.410210     2.402566
      2.394923     2.387280     2.379637     2.371994     2.364350     2.356707     2.349064     2.341421     2.333777     2.326134
      2.318491     2.310848     2.303205     2.295561     2.287918     2.280275     2.272632     2.264988     2.257345     2.249702
      2.242059     2.234416     2.226772     2.219129     2.211486     2.203843     2.196199     2.188556     2.180913     2.173270
      2.165627     2.157983     2.150340     2.142697     2.135054     2.127410     2.119767     2.112124     2.104481     2.096838
      2.089194     2.081551     2.073908     2.066265     2.058621     2.050978     2.043335     2.035692     2.028049     2.020405
      2.012762     2.005119     1.997476     1.989833     1.982190     1.974546     1.966903     1.959260     1.951617     1.943974
      1.936331     1.928688     1.921045     1.913402     1.905759     1.898115     1.890472     1.882829     1.875186     1.867543
      1.859900     1.852257     1.844614     1.836971     1.829327     1.821684     1.814041     1.806398     1.798755     1.791112
      1.783469     1.775826     1.768183     1.760540     1.752896     1.745253     1.737610     1.729967     1.722324     1.714681
      1.707038     1.699395     1.691752     1.684108     1.676465     1.668822     1.661179     1.653536     1.645893     1.638250
      1.630607     1.622964     1.615321     1.607677     1.600034     1.592391     1.584748     1.577105     1.569462     1.561819
      1.554176     1.546533     1.538890     1.531246     1.523603     1.515960     1.508317     1.500674     1.493031     1.485388
      1.477745     1.470102     1.462458     1.454815     1.447172     1.439529     1.431886     1.424243     1.416600     1.408957
      1.401314     1.393671     1.386027     1.378384     1.370741     1.363098     1.355455     1.347812     1.340169     1.332526
      1.324883     1.317240     1.309596     1.301953     1.294310     1.286667     1.279024     1.271381     1.263738     1.256095
      1.248452     1.240808     1.233165     1.225522     1.217879     1.210236     1.202593     1.194950     1.187307     1.179664
      1.172021     1.164377     1.156734     1.149091     1.141448     1.133805     1.126162     1.118519     1.110876     1.103233
      1.095590     1.087946     1.080303     1.072660     1.065017     1.057374     1.049731     1.042088     1.034445     1.026802
      1.019158     1.011515     1.003872     0.996229     0.988586     0.980943     0.973300     0.965657     0.958014     0.950371
      0.942727     0.935084     0.927441     0.919798     0.912155     0.904512     0.896869     0.889226     0.881583     0.873940
      0.866296     0.858653     0.851010     0.843367     0.835724     0.828081     0.820438     0.812795     0.805152     0.797508
      0.789865     0.782222     0.774579     0.766936     0.759293     0.751650     0.744007     0.736364     0.728721     0.721077
      0.713434     0.705791     0.698148     0.690505     0.682862     0.675219     0.667576     0.659933     0.652290     0.644646
      0.637003     0.629360     0.621717     0.614074     0.606431     0.598788     0.591145     0.583502     0.575858     0.568215
      0.560572     0.552929     0.545286     0.537643     0.530000     0.522357     0.514714     0.507071     0.499427     0.491784
      0.484141     0.476498     0.468855     0.461212     0.453569     0.445925     0.438282     0.430639     0.422996     0.415353
      0.407710     0.400067     0.392424     0.384780     0.377137     0.369494     0.361851     0.354208     0.346565     0.338922
      0.331278     0.323635     0.315992     0.308349     0.300706     0.293063     0.285420     0.277777     0.270133     0.262490
      0.254847     0.247204     0.239561     0.231918     0.224275     0.216631     0.208988     0.201345
 NY phased data points follow
   2.04429E+01  2.06083E+01  2.08741E+01  2.03838E+01  1.95003E+01  1.91096E+01  2.15642E+01  2.02149E+01  2.06998E+01  2.19173E+01
   2.12610E+01  2.35675E+01  2.17442E+01  2.14189E+01  2.15322E+01  2.37278E+01  2.09150E+01  2.14295E+01  2.40688E+01  2.20920E+01
   1.98367E+01  1.96131E+01  2.11260E+01  2.02182E+01  2.05117E+01  2.03175E+01  1.93867E+01  1.99693E+01  2.13263E+01  2.02462E+01
   2.06795E+01  2.00296E+01  2.02237E+01  2.13201E+01  2.06626E+01  2.19294E+01  2.17734E+01  2.20820E+01  2.07811E+01  1.76451E+01
   2.09810E+01  2.15941E+01  2.01659E+01  2.10917E+01  2.15613E+01  2.02191E+01  2.22022E+01  1.94694E+01  2.10349E+01  2.18403E+01
   2.07962E+01  2.15482E+01  2.16892E+01  2.14984E+01  1.85609E+01  2.17972E+01  2.10558E+01  1.98352E+01  2.18494E+01  1.85944E+01
   2.14932E+01  2.10285E+01  1.97976E+01  2.00396E+01  1.92354E+01  2.04206E+01  2.06424E+01  2.00674E+01  2.12403E+01  2.10190E+01
   1.92858E+01  2.22648E+01  2.11566E+01  2.05385E+01  2.02218E+01  1.94110E+01  1.97697E+01  1.76451E+01  1.76142E+01  1.78205E+01
   1.91421E+01  2.16647E+01  2.13058E+01  1.99467E+01  2.16746E+01  2.18752E+01  2.06043E+01  1.94482E+01  1.94315E+01  1.79539E+01
   2.06073E+01  2.04480E+01  2.08004E+01  2.03635E+01  2.03505E+01  2.01503E+01  2.19127E+01  2.21600E+01  2.07247E+01  2.08231E+01
   2.04645E+01  2.27720E+01  2.08124E+01  2.00172E+01  2.31194E+01  2.46536E+01  2.26161E+01  2.30333E+01  2.03468E+01  2.16440E+01
   2.15399E+01  2.06355E+01  2.33375E+01  2.02621E+01  2.21681E+01  2.19541E+01  2.15885E+01  2.27581E+01  2.13324E+01  2.28928E+01
   2.24549E+01  2.19080E+01  2.19415E+01  1.80321E+01  2.06538E+01  2.20726E+01  2.46402E+01  2.42034E+01  2.49325E+01  2.59484E+01
   2.55137E+01  2.55633E+01  2.49049E+01  2.50496E+01  2.51604E+01  2.49927E+01  2.66794E+01  2.29320E+01  2.35975E+01  2.39158E+01
   2.36523E+01  2.46282E+01  2.54276E+01  2.52691E+01  2.66213E+01  2.29928E+01  2.48397E+01  2.52223E+01  2.42050E+01  2.50828E+01
   2.64889E+01  2.33784E+01  2.48698E+01  2.66852E+01  2.51509E+01  2.50427E+01  2.51757E+01  2.44928E+01  2.56896E+01  2.57633E+01
   2.72067E+01  2.60528E+01  2.54774E+01  2.75654E+01  2.58274E+01  2.67021E+01  2.69571E+01  2.55843E+01  2.46748E+01  2.65738E+01
   2.67359E+01  2.52958E+01  2.42939E+01  2.42690E+01  2.52636E+01  2.72659E+01  2.56499E+01  2.59266E+01  2.48197E+01  2.45234E+01
   2.47446E+01  2.71551E+01  2.52035E+01  2.67676E+01  2.59507E+01  2.69579E+01  2.64580E+01  2.53172E+01  2.56711E+01  2.49830E+01
   2.84924E+01  2.62261E+01  2.58755E+01  2.77498E+01  2.65142E+01  2.98218E+01  2.82465E+01  2.81267E+01  2.62405E+01  2.72925E+01
   2.79675E+01  2.90247E+01  2.83955E+01  2.63530E+01  2.94335E+01  2.86794E+01  2.84671E+01  2.74111E+01  2.91102E+01  2.67020E+01
   2.72440E+01  2.86405E+01  2.87894E+01  2.76463E+01  2.77257E+01  3.04972E+01  2.66670E+01  2.76985E+01  2.90432E+01  2.85599E+01
   2.74273E+01  3.14508E+01  2.82843E+01  2.92370E+01  2.83525E+01  3.02743E+01  2.94090E+01  3.02294E+01  3.10598E+01  3.01500E+01
   3.10151E+01  3.13504E+01  3.16363E+01  3.20879E+01  3.06281E+01  2.99119E+01  2.83153E+01  3.29671E+01  3.24133E+01  3.51714E+01
   3.37689E+01  3.19088E+01  3.51272E+01  3.30277E+01  3.42488E+01  3.41120E+01  3.44819E+01  3.38752E+01  3.34407E+01  3.79810E+01
   3.60018E+01  3.57629E+01  3.41265E+01  3.87073E+01  3.80599E+01  3.73771E+01  3.54114E+01  3.43260E+01  3.56364E+01  3.85764E+01
   4.21878E+01  4.06771E+01  4.22180E+01  4.68978E+01  4.24957E+01  4.42881E+01  4.59655E+01  4.46956E+01  4.34828E+01  4.55790E+01
   4.56686E+01  4.65212E+01  4.60302E+01  4.40189E+01  4.60983E+01  4.67252E+01  4.58040E+01  4.81375E+01  4.92274E+01  4.74778E+01
   5.08644E+01  5.30078E+01  5.22157E+01  4.96671E+01  5.22510E+01  5.27455E+01  5.46359E+01  5.37581E+01  5.68075E+01  5.58276E+01
   5.74063E+01  5.71049E+01  5.87425E+01  6.02178E+01  6.19207E+01  6.37578E+01  6.66421E+01  6.42498E+01  6.62184E+01  6.68013E+01
   6.93574E+01  6.86573E+01  7.09810E+01  7.04019E+01  7.29409E+01  7.60251E+01  7.62730E+01  7.68863E+01  7.70813E+01  7.89128E+01
   8.13896E+01  8.04429E+01  8.16318E+01  8.50160E+01  8.34924E+01  8.44782E+01  8.67120E+01  8.64571E+01  8.72180E+01  8.91549E+01
   8.99960E+01  9.18885E+01  8.83066E+01  9.11344E+01  9.06917E+01  9.10032E+01  9.23554E+01  9.38967E+01  9.30829E+01  9.54315E+01
   9.62827E+01  9.41950E+01  9.82209E+01  9.52594E+01  9.66882E+01  9.88555E+01  9.75716E+01  9.86773E+01  1.00487E+02  9.91578E+01
   1.01030E+02  1.01808E+02  1.03055E+02  1.01680E+02  1.02884E+02  1.05985E+02  1.06140E+02  1.07002E+02  1.07817E+02  1.10163E+02
   1.09578E+02  1.10843E+02  1.11563E+02  1.10505E+02  1.12186E+02  1.12124E+02  1.13234E+02  1.13025E+02  1.16460E+02  1.17262E+02
   1.18809E+02  1.16477E+02  1.17691E+02  1.16457E+02  1.17324E+02  1.18484E+02  1.15465E+02  1.17975E+02  1.18359E+02  1.13913E+02
   1.13113E+02  1.14021E+02  1.15449E+02  1.14140E+02  1.12228E+02  1.15849E+02  1.16302E+02  1.13087E+02  1.14423E+02  1.10834E+02
   1.12030E+02  1.11799E+02  1.09852E+02  1.10519E+02  1.08844E+02  1.07669E+02  1.08516E+02  1.07770E+02  1.06469E+02  1.04869E+02
   1.03236E+02  1.03358E+02  1.05192E+02  1.03500E+02  1.01244E+02  9.94870E+01  1.00662E+02  9.96128E+01  9.68406E+01  9.72086E+01
   9.52077E+01  9.25796E+01  8.88143E+01  9.09927E+01  8.84709E+01  8.73013E+01  8.42567E+01  8.49120E+01  8.29282E+01  8.14126E+01
   7.89359E+01  7.81108E+01  7.80382E+01  7.49246E+01  7.39356E+01  7.25463E+01  7.22840E+01  6.79118E+01  6.67618E+01  6.65594E+01
   6.49668E+01  5.92671E+01  5.94910E+01  5.89895E+01  5.65154E+01  5.57592E+01  5.41369E+01  5.21400E+01  5.15918E+01  4.93546E+01
   4.68931E+01  4.53920E+01  4.48538E+01  4.21161E+01  3.91655E+01  3.91001E+01  3.84097E+01  3.70853E+01  3.50726E+01  3.27866E+01
   3.37127E+01  3.28401E+01  2.92665E+01  2.73554E+01  2.78324E+01  2.26997E+01  2.46852E+01  2.42686E+01  2.20661E+01  2.02886E+01
   1.86713E+01  1.72359E+01  1.58151E+01  1.74623E+01  1.32745E+01  1.39522E+01  1.38431E+01  1.33372E+01  1.15280E+01  9.93456E+00
   1.03976E+01  7.65625E+00  6.45390E+00  5.43785E+00  7.76051E+00  5.40843E+00  2.77523E+00  2.70586E+00  2.18752E+00  4.43636E+00
   1.56408E+00  1.18233E+00  3.44215E+00  1.20531E+00  1.20239E-01 -8.80117E-01 -1.28893E+00 -1.63045E+00 -1.58106E+00 -3.92231E+00
  -4.02659E+00 -5.32489E+00 -3.49100E+00 -5.44961E+00 -4.28638E+00 -4.40204E+00 -5.87812E+00 -7.18839E+00 -7.18320E+00 -4.08933E+00
  -5.92942E+00 -7.64666E+00 -5.80738E+00 -8.20353E+00 -7.70469E+00 -7.39811E+00 -6.65698E+00 -1.05854E+01
 NY points of the fit to the data follow
   2.09074E+01  2.08138E+01  2.07274E+01  2.05930E+01  2.02774E+01  1.99949E+01  2.00051E+01  2.02885E+01  2.07123E+01  2.11986E+01
   2.17363E+01  2.21896E+01  2.23985E+01  2.23897E+01  2.21328E+01  2.17008E+01  2.13983E+01  2.11320E+01  2.09264E+01  2.08520E+01
   2.08311E+01  2.08396E+01  2.08807E+01  2.09366E+01  2.09440E+01  2.07468E+01  2.03905E+01  2.01742E+01  2.02471E+01  2.05044E+01
   2.07944E+01  2.11013E+01  2.14487E+01  2.16916E+01  2.17136E+01  2.15309E+01  2.12011E+01  2.09280E+01  2.07814E+01  2.06860E+01
   2.06484E+01  2.06394E+01  2.05931E+01  2.04876E+01  2.04070E+01  2.04319E+01  2.05495E+01  2.06853E+01  2.07839E+01  2.08497E+01
   2.08858E+01  2.08589E+01  2.07565E+01  2.06115E+01  2.04704E+01  2.03656E+01  2.03031E+01  2.02830E+01  2.03033E+01  2.03476E+01
   2.03930E+01  2.04267E+01  2.04372E+01  2.04263E+01  2.03927E+01  2.03339E+01  2.02719E+01  2.02170E+01  2.01783E+01  2.01734E+01
   2.01902E+01  2.02073E+01  2.02189E+01  2.02386E+01  2.02716E+01  2.02986E+01  2.03169E+01  2.03218E+01  2.03096E+01  2.02977E+01
   2.02874E+01  2.02647E+01  2.02507E+01  2.02839E+01  2.03546E+01  2.04189E+01  2.04500E+01  2.04558E+01  2.04550E+01  2.04531E+01
   2.04525E+01  2.04533E+01  2.04645E+01  2.05143E+01  2.05914E+01  2.06679E+01  2.07192E+01  2.06565E+01  2.03643E+01  2.01317E+01
   2.02914E+01  2.07832E+01  2.13036E+01  2.17094E+01  2.20886E+01  2.24269E+01  2.25797E+01  2.25111E+01  2.22257E+01  2.18756E+01
   2.17766E+01  2.18116E+01  2.18726E+01  2.19433E+01  2.20177E+01  2.21040E+01  2.21970E+01  2.22833E+01  2.23583E+01  2.24196E+01
   2.24319E+01  2.21821E+01  2.14240E+01  2.08119E+01  2.11309E+01  2.22682E+01  2.35162E+01  2.44868E+01  2.53404E+01  2.60525E+01
   2.63320E+01  2.61394E+01  2.54750E+01  2.46341E+01  2.42843E+01  2.42051E+01  2.41390E+01  2.40442E+01  2.39608E+01  2.39249E+01
   2.39590E+01  2.40893E+01  2.42719E+01  2.44602E+01  2.46297E+01  2.47414E+01  2.47978E+01  2.48361E+01  2.48628E+01  2.49052E+01
   2.49564E+01  2.50076E+01  2.50508E+01  2.50910E+01  2.51356E+01  2.51897E+01  2.52710E+01  2.53715E+01  2.54492E+01  2.54803E+01
   2.54713E+01  2.54649E+01  2.54951E+01  2.55529E+01  2.56213E+01  2.56925E+01  2.57775E+01  2.58785E+01  2.59523E+01  2.59825E+01
   2.59969E+01  2.60219E+01  2.60827E+01  2.61253E+01  2.61120E+01  2.60888E+01  2.61124E+01  2.61760E+01  2.62190E+01  2.62279E+01
   2.62486E+01  2.63156E+01  2.64187E+01  2.64864E+01  2.64555E+01  2.63791E+01  2.63187E+01  2.63125E+01  2.63553E+01  2.64433E+01
   2.65858E+01  2.67689E+01  2.69584E+01  2.71413E+01  2.72597E+01  2.72470E+01  2.71329E+01  2.69918E+01  2.68968E+01  2.68594E+01
   2.68721E+01  2.69602E+01  2.71462E+01  2.73960E+01  2.76673E+01  2.79099E+01  2.80677E+01  2.80897E+01  2.80198E+01  2.79417E+01
   2.78674E+01  2.77867E+01  2.77497E+01  2.78311E+01  2.80142E+01  2.82440E+01  2.84885E+01  2.86954E+01  2.88743E+01  2.90308E+01
   2.91300E+01  2.91985E+01  2.92908E+01  2.94308E+01  2.96037E+01  2.98051E+01  3.00517E+01  3.03350E+01  3.05937E+01  3.07716E+01
   3.08944E+01  3.10409E+01  3.12057E+01  3.13301E+01  3.14718E+01  3.17286E+01  3.20874E+01  3.24747E+01  3.28636E+01  3.32375E+01
   3.35647E+01  3.38078E+01  3.39844E+01  3.41232E+01  3.42807E+01  3.45075E+01  3.47805E+01  3.50827E+01  3.54396E+01  3.58395E+01
   3.62240E+01  3.65773E+01  3.69060E+01  3.72225E+01  3.74638E+01  3.72536E+01  3.63822E+01  3.59886E+01  3.69944E+01  3.89502E+01
   4.08387E+01  4.23362E+01  4.37605E+01  4.49420E+01  4.54163E+01  4.51576E+01  4.42263E+01  4.33051E+01  4.32654E+01  4.35756E+01
   4.39595E+01  4.43780E+01  4.48222E+01  4.52910E+01  4.57882E+01  4.63136E+01  4.68620E+01  4.74274E+01  4.80102E+01  4.86103E+01
   4.92272E+01  4.98640E+01  5.05249E+01  5.12176E+01  5.19487E+01  5.27185E+01  5.35271E+01  5.43780E+01  5.52712E+01  5.62059E+01
   5.71817E+01  5.81973E+01  5.92519E+01  6.03458E+01  6.14776E+01  6.26442E+01  6.38423E+01  6.50682E+01  6.63165E+01  6.75808E+01
   6.88550E+01  7.01315E+01  7.14028E+01  7.26612E+01  7.38991E+01  7.51098E+01  7.62869E+01  7.74251E+01  7.85202E+01  7.95691E+01
   8.05701E+01  8.15233E+01  8.24298E+01  8.32924E+01  8.41147E+01  8.49011E+01  8.56569E+01  8.63876E+01  8.70983E+01  8.77936E+01
   8.84758E+01  8.91415E+01  8.97819E+01  9.04526E+01  9.12281E+01  9.20674E+01  9.28686E+01  9.35883E+01  9.42626E+01  9.49133E+01
   9.54677E+01  9.58716E+01  9.62196E+01  9.66471E+01  9.72345E+01  9.79019E+01  9.85516E+01  9.92064E+01  9.98662E+01  1.00495E+02
   1.01067E+02  1.01535E+02  1.01882E+02  1.02309E+02  1.03227E+02  1.04638E+02  1.06111E+02  1.07329E+02  1.08375E+02  1.09418E+02
   1.10159E+02  1.10294E+02  1.10229E+02  1.10496E+02  1.11377E+02  1.12681E+02  1.13895E+02  1.15040E+02  1.16098E+02  1.16921E+02
   1.17420E+02  1.17480E+02  1.17305E+02  1.17232E+02  1.17204E+02  1.17166E+02  1.17092E+02  1.16966E+02  1.16777E+02  1.16517E+02
   1.16183E+02  1.15778E+02  1.15307E+02  1.14781E+02  1.14214E+02  1.13619E+02  1.13012E+02  1.12407E+02  1.11816E+02  1.11250E+02
   1.10714E+02  1.10212E+02  1.09741E+02  1.09296E+02  1.08867E+02  1.08442E+02  1.08006E+02  1.07541E+02  1.07031E+02  1.06460E+02
   1.05813E+02  1.05078E+02  1.04247E+02  1.03315E+02  1.02280E+02  1.01146E+02  9.99197E+01  9.86096E+01  9.72282E+01  9.57889E+01
   9.43059E+01  9.27934E+01  9.12646E+01  8.97314E+01  8.82033E+01  8.66879E+01  8.51899E+01  8.37117E+01  8.22530E+01  8.08118E+01
   7.93841E+01  7.79646E+01  7.65471E+01  7.51248E+01  7.36912E+01  7.22399E+01  7.07653E+01  6.92629E+01  6.77292E+01  6.61622E+01
   6.45611E+01  6.29264E+01  6.12600E+01  5.95648E+01  5.78447E+01  5.61044E+01  5.43490E+01  5.25844E+01  5.08164E+01  4.90508E+01
   4.72935E+01  4.55500E+01  4.38253E+01  4.21243E+01  4.04510E+01  3.88091E+01  3.72016E+01  3.56310E+01  3.40992E+01  3.26076E+01
   3.11571E+01  2.97482E+01  2.83810E+01  2.70552E+01  2.57704E+01  2.45256E+01  2.33201E+01  2.21526E+01  2.10220E+01  1.99269E+01
   1.88661E+01  1.78381E+01  1.68415E+01  1.58750E+01  1.49372E+01  1.40268E+01  1.31425E+01  1.22830E+01  1.14472E+01  1.06340E+01
   9.84221E+00  9.07091E+00  8.31914E+00  7.58600E+00  6.87068E+00  6.17239E+00  5.49039E+00  4.82401E+00  4.17261E+00  3.53561E+00
   2.91247E+00  2.30268E+00  1.70576E+00  1.12127E+00  5.48819E-01 -1.19663E-02 -5.61425E-01 -1.09989E+00 -1.62764E+00 -2.14496E+00
  -2.65209E+00 -3.14926E+00 -3.63667E+00 -4.11452E+00 -4.58300E+00 -5.04225E+00 -5.49242E+00 -5.93364E+00 -6.36603E+00 -6.78972E+00
  -7.20478E+00 -7.61132E+00 -8.00939E+00 -8.39907E+00 -8.78043E+00 -9.15352E+00 -9.51839E+00 -9.87506E+00
 NY background values follow
     2.158E+01    2.157E+01    2.157E+01    2.156E+01    2.155E+01    2.154E+01    2.154E+01    2.153E+01    2.152E+01    2.152E+01
     2.151E+01    2.150E+01    2.150E+01    2.149E+01    2.148E+01    2.147E+01    2.147E+01    2.146E+01    2.145E+01    2.144E+01
     2.144E+01    2.143E+01    2.142E+01    2.141E+01    2.140E+01    2.139E+01    2.138E+01    2.137E+01    2.136E+01    2.135E+01
     2.134E+01    2.133E+01    2.132E+01    2.130E+01    2.129E+01    2.128E+01    2.126E+01    2.125E+01    2.124E+01    2.122E+01
     2.121E+01    2.119E+01    2.117E+01    2.115E+01    2.114E+01    2.112E+01    2.110E+01    2.108E+01    2.106E+01    2.104E+01
     2.102E+01    2.099E+01    2.097E+01    2.095E+01    2.093E+01    2.091E+01    2.088E+01    2.086E+01    2.084E+01    2.082E+01
     2.080E+01    2.078E+01    2.076E+01    2.074E+01    2.072E+01    2.071E+01    2.069E+01    2.068E+01    2.066E+01    2.065E+01
     2.064E+01    2.063E+01    2.062E+01    2.061E+01    2.060E+01    2.060E+01    2.060E+01    2.060E+01    2.060E+01    2.060E+01
     2.060E+01    2.061E+01    2.062E+01    2.063E+01    2.065E+01    2.066E+01    2.068E+01    2.070E+01    2.072E+01    2.075E+01
     2.078E+01    2.081E+01    2.085E+01    2.089E+01    2.093E+01    2.097E+01    2.102E+01    2.106E+01    2.111E+01    2.117E+01
     2.122E+01    2.128E+01    2.134E+01    2.140E+01    2.146E+01    2.152E+01    2.159E+01    2.165E+01    2.172E+01    2.179E+01
     2.186E+01    2.194E+01    2.201E+01    2.208E+01    2.216E+01    2.223E+01    2.231E+01    2.239E+01    2.246E+01    2.254E+01
     2.262E+01    2.270E+01    2.277E+01    2.285E+01    2.293E+01    2.301E+01    2.309E+01    2.316E+01    2.324E+01    2.332E+01
     2.339E+01    2.347E+01    2.354E+01    2.361E+01    2.369E+01    2.376E+01    2.383E+01    2.389E+01    2.396E+01    2.403E+01
     2.409E+01    2.416E+01    2.422E+01    2.428E+01    2.434E+01    2.440E+01    2.446E+01    2.451E+01    2.457E+01    2.462E+01
     2.468E+01    2.473E+01    2.478E+01    2.483E+01    2.487E+01    2.492E+01    2.497E+01    2.501E+01    2.506E+01    2.510E+01
     2.514E+01    2.518E+01    2.522E+01    2.525E+01    2.529E+01    2.533E+01    2.536E+01    2.539E+01    2.542E+01    2.546E+01
     2.548E+01    2.551E+01    2.554E+01    2.557E+01    2.559E+01    2.562E+01    2.564E+01    2.566E+01    2.568E+01    2.570E+01
     2.572E+01    2.573E+01    2.575E+01    2.577E+01    2.578E+01    2.579E+01    2.581E+01    2.582E+01    2.583E+01    2.585E+01
     2.586E+01    2.588E+01    2.589E+01    2.591E+01    2.592E+01    2.594E+01    2.596E+01    2.598E+01    2.600E+01    2.602E+01
     2.605E+01    2.607E+01    2.610E+01    2.613E+01    2.617E+01    2.620E+01    2.624E+01    2.629E+01    2.633E+01    2.638E+01
     2.643E+01    2.649E+01    2.655E+01    2.661E+01    2.668E+01    2.675E+01    2.683E+01    2.691E+01    2.700E+01    2.709E+01
     2.718E+01    2.729E+01    2.739E+01    2.751E+01    2.762E+01    2.775E+01    2.788E+01    2.801E+01    2.816E+01    2.830E+01
     2.846E+01    2.862E+01    2.878E+01    2.895E+01    2.912E+01    2.930E+01    2.949E+01    2.967E+01    2.986E+01    3.006E+01
     3.025E+01    3.045E+01    3.066E+01    3.086E+01    3.107E+01    3.128E+01    3.149E+01    3.171E+01    3.192E+01    3.214E+01
     3.236E+01    3.258E+01    3.280E+01    3.302E+01    3.324E+01    3.346E+01    3.368E+01    3.390E+01    3.412E+01    3.434E+01
     3.456E+01    3.478E+01    3.499E+01    3.520E+01    3.542E+01    3.563E+01    3.583E+01    3.604E+01    3.624E+01    3.644E+01
     3.663E+01    3.682E+01    3.701E+01    3.720E+01    3.738E+01    3.755E+01    3.773E+01    3.790E+01    3.806E+01    3.822E+01
     3.838E+01    3.853E+01    3.868E+01    3.883E+01    3.897E+01    3.910E+01    3.923E+01    3.936E+01    3.949E+01    3.961E+01
     3.972E+01    3.983E+01    3.994E+01    4.004E+01    4.014E+01    4.023E+01    4.032E+01    4.040E+01    4.048E+01    4.055E+01
     4.062E+01    4.069E+01    4.074E+01    4.080E+01    4.085E+01    4.089E+01    4.093E+01    4.097E+01    4.100E+01    4.102E+01
     4.104E+01    4.106E+01    4.107E+01    4.107E+01    4.107E+01    4.106E+01    4.105E+01    4.103E+01    4.101E+01    4.098E+01
     4.095E+01    4.091E+01    4.087E+01    4.082E+01    4.076E+01    4.071E+01    4.064E+01    4.057E+01    4.050E+01    4.042E+01
     4.034E+01    4.025E+01    4.016E+01    4.006E+01    3.996E+01    3.985E+01    3.974E+01    3.962E+01    3.950E+01    3.938E+01
     3.925E+01    3.912E+01    3.898E+01    3.884E+01    3.869E+01    3.854E+01    3.839E+01    3.823E+01    3.807E+01    3.790E+01
     3.773E+01    3.756E+01    3.738E+01    3.720E+01    3.702E+01    3.683E+01    3.664E+01    3.644E+01    3.624E+01    3.604E+01
     3.583E+01    3.562E+01    3.541E+01    3.519E+01    3.497E+01    3.475E+01    3.453E+01    3.430E+01    3.406E+01    3.383E+01
     3.359E+01    3.334E+01    3.310E+01    3.285E+01    3.259E+01    3.234E+01    3.208E+01    3.181E+01    3.155E+01    3.128E+01
     3.100E+01    3.072E+01    3.044E+01    3.016E+01    2.987E+01    2.958E+01    2.928E+01    2.898E+01    2.868E+01    2.837E+01
     2.806E+01    2.775E+01    2.743E+01    2.711E+01    2.678E+01    2.645E+01    2.612E+01    2.578E+01    2.544E+01    2.510E+01
     2.475E+01    2.440E+01    2.404E+01    2.369E+01    2.332E+01    2.296E+01    2.258E+01    2.221E+01    2.183E+01    2.145E+01
     2.106E+01    2.067E+01    2.028E+01    1.989E+01    1.949E+01    1.908E+01    1.868E+01    1.827E+01    1.786E+01    1.745E+01
     1.703E+01    1.662E+01    1.620E+01    1.577E+01    1.535E+01    1.493E+01    1.450E+01    1.407E+01    1.364E+01    1.321E+01
     1.278E+01    1.234E+01    1.191E+01    1.147E+01    1.104E+01    1.060E+01    1.016E+01    9.724E+00    9.286E+00    8.849E+00
     8.411E+00    7.973E+00    7.535E+00    7.098E+00    6.661E+00    6.225E+00    5.790E+00    5.355E+00    4.922E+00    4.489E+00
     4.058E+00    3.628E+00    3.200E+00    2.773E+00    2.348E+00    1.924E+00    1.503E+00    1.083E+00    6.650E-01    2.493E-01
    -1.641E-01   -5.754E-01   -9.843E-01   -1.391E+00   -1.795E+00   -2.196E+00   -2.595E+00   -2.990E+00   -3.383E+00   -3.773E+00
    -4.160E+00   -4.544E+00   -4.925E+00   -5.302E+00   -5.676E+00   -6.047E+00   -6.414E+00   -6.777E+00   -7.136E+00   -7.492E+00
    -7.844E+00   -8.192E+00   -8.536E+00   -8.875E+00   -9.211E+00   -9.542E+00   -9.868E+00   -1.019E+01   -1.051E+01   -1.082E+01
    -1.113E+01   -1.143E+01   -1.173E+01   -1.202E+01   -1.231E+01   -1.259E+01   -1.287E+01   -1.314E+01
 Ala      Conc. = 8.54E+00
