 LCModel (Version 6.3-1L) Copyright: S.W. Provencher.          Ref.: Magn. Reson. Med. 30:672-679 (1993).                
 Slice#2 Row#8 Col#5  K_02_press_1_raw_act
 36 lines in following concentration table = NCONC+1
    Conc.  %SD /Cr+PCr  Metabolite                                         
  127.021  83% 6.7E-02 Ala                                                 
    0.000 999%   0.000 Asp                                                 
  548.396  37%   0.288 Cr                                                  
 1.36E+03  16%   0.712 PCr                                                 
    0.000 999%   0.000 GABA                                                
  196.852 108%   0.103 Glc                                                 
  354.791  60%   0.186 Gln                                                 
 1.85E+03  13%   0.969 Glu                                                 
  812.790   4%   0.427 GPC                                                 
    0.000 999%   0.000 PCh                                                 
  639.206  13%   0.335 GSH                                                 
 1.42E+03  19%   0.746 Ins                                                 
  109.510 102% 5.7E-02 Lac                                                 
 3.15E+03   4%   1.652 NAA                                                 
 1.36E+03   8%   0.714 NAAG                                                
   43.979  76% 2.3E-02 Scyllo                                              
  222.764 117%   0.117 Tau                                                 
  194.320  72%   0.102 -CrCH2                                              
  812.790   4%   0.427 GPC+PCh                                             
 4.51E+03   3%   2.366 NAA+NAAG                                            
 1.91E+03   4%   1.000 Cr+PCr                                              
 2.20E+03  14%   1.156 Glu+Gln                                             
 2.03E+03  41%   1.067 Lip13a                                              
    0.000 999%   0.000 Lip13b                                              
  268.095 134%   0.141 Lip09                                               
 1.66E+03  24%   0.871 MM09                                                
  312.569  76%   0.164 Lip20                                               
 3.12E+03  20%   1.636 MM20                                                
  603.854  41%   0.317 MM12                                                
 1.33E+03  40%   0.698 MM14                                                
  941.419  40%   0.494 MM17                                                
 2.03E+03  41%   1.067 Lip13a+Lip13b                                       
 3.97E+03  19%   2.082 MM14+Lip13a+Lip13b+MM12                             
 1.93E+03  17%   1.012 MM09+Lip09                                          
 3.43E+03  18%   1.800 MM20+Lip20                                          
   6 lines in following misc. output table
  FWHM = 0.031 ppm    S/N =  17                                            
  Data shift = 0.015 ppm                                                   
  Ph: -35 deg     -10.8 deg/ppm                                            
  alphaB,S = 1.3E+00,   2.5E+01                                            
   14 spline knots.   Ns = 5(1)                                            
  ( 6) 2 infls.   ( 3) 1 extrs.                                            
  498 points on ppm-axis = NY
      4.000000     3.992357     3.984714     3.977070     3.969427     3.961784     3.954141     3.946497     3.938854     3.931211
      3.923568     3.915925     3.908281     3.900638     3.892995     3.885352     3.877708     3.870065     3.862422     3.854779
      3.847136     3.839492     3.831849     3.824206     3.816563     3.808919     3.801276     3.793633     3.785990     3.778347
      3.770703     3.763060     3.755417     3.747774     3.740130     3.732487     3.724844     3.717201     3.709558     3.701914
      3.694271     3.686628     3.678985     3.671341     3.663698     3.656055     3.648412     3.640769     3.633125     3.625482
      3.617839     3.610196     3.602552     3.594909     3.587266     3.579623     3.571980     3.564336     3.556693     3.549050
      3.541407     3.533763     3.526120     3.518477     3.510834     3.503191     3.495547     3.487904     3.480261     3.472618
      3.464974     3.457331     3.449688     3.442045     3.434402     3.426758     3.419115     3.411472     3.403829     3.396185
      3.388542     3.380899     3.373256     3.365613     3.357969     3.350326     3.342683     3.335040     3.327396     3.319753
      3.312110     3.304467     3.296824     3.289180     3.281537     3.273894     3.266251     3.258607     3.250964     3.243321
      3.235678     3.228034     3.220391     3.212748     3.205105     3.197462     3.189818     3.182175     3.174532     3.166889
      3.159245     3.151602     3.143959     3.136316     3.128673     3.121029     3.113386     3.105743     3.098100     3.090456
      3.082813     3.075170     3.067527     3.059884     3.052240     3.044597     3.036954     3.029311     3.021667     3.014024
      3.006381     2.998738     2.991095     2.983451     2.975808     2.968165     2.960522     2.952878     2.945235     2.937592
      2.929949     2.922306     2.914662     2.907019     2.899376     2.891733     2.884089     2.876446     2.868803     2.861160
      2.853517     2.845873     2.838230     2.830587     2.822944     2.815300     2.807657     2.800014     2.792371     2.784728
      2.777084     2.769441     2.761798     2.754155     2.746511     2.738868     2.731225     2.723582     2.715939     2.708295
      2.700652     2.693009     2.685366     2.677722     2.670079     2.662436     2.654793     2.647150     2.639506     2.631863
      2.624220     2.616577     2.608933     2.601290     2.593647     2.586004     2.578361     2.570717     2.563074     2.555431
      2.547788     2.540144     2.532501     2.524858     2.517215     2.509572     2.501928     2.494285     2.486642     2.478999
      2.471355     2.463712     2.456069     2.448426     2.440783     2.433139     2.425496     2.417853     2.410210     2.402566
      2.394923     2.387280     2.379637     2.371994     2.364350     2.356707     2.349064     2.341421     2.333777     2.326134
      2.318491     2.310848     2.303205     2.295561     2.287918     2.280275     2.272632     2.264988     2.257345     2.249702
      2.242059     2.234416     2.226772     2.219129     2.211486     2.203843     2.196199     2.188556     2.180913     2.173270
      2.165627     2.157983     2.150340     2.142697     2.135054     2.127410     2.119767     2.112124     2.104481     2.096838
      2.089194     2.081551     2.073908     2.066265     2.058621     2.050978     2.043335     2.035692     2.028049     2.020405
      2.012762     2.005119     1.997476     1.989833     1.982190     1.974546     1.966903     1.959260     1.951617     1.943974
      1.936331     1.928688     1.921045     1.913402     1.905759     1.898115     1.890472     1.882829     1.875186     1.867543
      1.859900     1.852257     1.844614     1.836971     1.829327     1.821684     1.814041     1.806398     1.798755     1.791112
      1.783469     1.775826     1.768183     1.760540     1.752896     1.745253     1.737610     1.729967     1.722324     1.714681
      1.707038     1.699395     1.691752     1.684108     1.676465     1.668822     1.661179     1.653536     1.645893     1.638250
      1.630607     1.622964     1.615321     1.607677     1.600034     1.592391     1.584748     1.577105     1.569462     1.561819
      1.554176     1.546533     1.538890     1.531246     1.523603     1.515960     1.508317     1.500674     1.493031     1.485388
      1.477745     1.470102     1.462458     1.454815     1.447172     1.439529     1.431886     1.424243     1.416600     1.408957
      1.401314     1.393671     1.386027     1.378384     1.370741     1.363098     1.355455     1.347812     1.340169     1.332526
      1.324883     1.317240     1.309596     1.301953     1.294310     1.286667     1.279024     1.271381     1.263738     1.256095
      1.248452     1.240808     1.233165     1.225522     1.217879     1.210236     1.202593     1.194950     1.187307     1.179664
      1.172021     1.164377     1.156734     1.149091     1.141448     1.133805     1.126162     1.118519     1.110876     1.103233
      1.095590     1.087946     1.080303     1.072660     1.065017     1.057374     1.049731     1.042088     1.034445     1.026802
      1.019158     1.011515     1.003872     0.996229     0.988586     0.980943     0.973300     0.965657     0.958014     0.950371
      0.942727     0.935084     0.927441     0.919798     0.912155     0.904512     0.896869     0.889226     0.881583     0.873940
      0.866296     0.858653     0.851010     0.843367     0.835724     0.828081     0.820438     0.812795     0.805152     0.797508
      0.789865     0.782222     0.774579     0.766936     0.759293     0.751650     0.744007     0.736364     0.728721     0.721077
      0.713434     0.705791     0.698148     0.690505     0.682862     0.675219     0.667576     0.659933     0.652290     0.644646
      0.637003     0.629360     0.621717     0.614074     0.606431     0.598788     0.591145     0.583502     0.575858     0.568215
      0.560572     0.552929     0.545286     0.537643     0.530000     0.522357     0.514714     0.507071     0.499427     0.491784
      0.484141     0.476498     0.468855     0.461212     0.453569     0.445925     0.438282     0.430639     0.422996     0.415353
      0.407710     0.400067     0.392424     0.384780     0.377137     0.369494     0.361851     0.354208     0.346565     0.338922
      0.331278     0.323635     0.315992     0.308349     0.300706     0.293063     0.285420     0.277777     0.270133     0.262490
      0.254847     0.247204     0.239561     0.231918     0.224275     0.216631     0.208988     0.201345
 NY phased data points follow
  -6.57670E+01 -6.01654E+01 -6.15081E+01 -5.99244E+01 -5.34820E+01 -4.36103E+01 -3.94788E+01 -2.68407E+01 -1.19621E+01 -5.45200E+00
  -2.99581E-01 -8.02700E+00 -1.32639E+01 -2.50997E+01 -3.80721E+01 -4.21480E+01 -4.71030E+01 -5.26912E+01 -5.00037E+01 -5.00419E+01
  -5.21279E+01 -4.53014E+01 -4.67989E+01 -4.46752E+01 -4.30482E+01 -4.19181E+01 -4.14164E+01 -3.28326E+01 -3.60760E+01 -3.03119E+01
  -2.45888E+01 -2.22702E+01 -2.40803E+01 -2.60093E+01 -3.23653E+01 -2.97733E+01 -3.79933E+01 -3.11225E+01 -2.49121E+01 -2.82039E+01
  -3.19315E+01 -2.77078E+01 -2.15279E+01 -2.89329E+01 -2.15916E+01 -2.57603E+01 -9.19834E+00 -1.41473E+01 -1.53409E+01 -1.70779E+01
  -2.04970E+01 -2.12832E+01 -2.54341E+01 -2.91730E+01 -2.99725E+01 -2.43443E+01 -2.18232E+01 -2.02391E+01 -2.43095E+01 -2.55750E+01
  -2.69512E+01 -2.98170E+01 -2.84507E+01 -2.97898E+01 -3.53463E+01 -3.71501E+01 -2.96764E+01 -3.39399E+01 -3.51780E+01 -3.28746E+01
  -2.59024E+01 -3.02279E+01 -2.49825E+01 -2.16715E+01 -1.99135E+01 -2.42900E+01 -2.05703E+01 -1.73212E+01 -2.39528E+01 -2.33173E+01
  -1.63613E+01 -1.97788E+01 -1.86019E+01 -1.88691E+01 -2.84682E+01 -2.05539E+01 -2.15941E+01 -2.36781E+01 -1.72198E+01 -1.83031E+01
  -1.65725E+01 -2.04843E+01 -1.15494E+01 -9.52051E+00 -9.08413E+00 -1.12902E+01 -1.01589E+01 -8.41049E+00 -1.18082E+00  1.51096E+01
   3.81638E+01  6.26452E+01  7.93015E+01  7.95885E+01  6.42699E+01  4.09305E+01  2.24069E+01  1.27679E+01  3.65297E+00 -2.23183E+00
  -1.10656E+01 -9.06449E+00 -1.24756E+01 -1.24396E+01 -4.64916E+00 -1.11784E+01 -4.20756E+00 -1.12648E+01  4.52210E-01 -7.57253E+00
  -7.07072E+00 -7.02786E+00 -2.11517E+00  5.13335E+00  2.20832E+01  5.20007E+01  7.51237E+01  7.59896E+01  6.40230E+01  4.65375E+01
   2.74902E+01  1.73504E+01  1.03623E+01 -1.37789E+00  2.40809E-01 -7.18304E+00 -8.77944E+00 -1.03315E+01 -9.95911E+00 -2.06129E+00
  -3.76437E+00 -5.09911E+00 -2.15299E+00 -6.70862E+00 -7.46595E+00 -6.93011E+00 -5.55765E-01 -4.45457E+00 -6.48938E+00 -1.01805E+01
   2.00507E+00 -3.82592E+00 -4.52559E+00 -4.71217E+00 -6.00482E+00 -1.29358E+01 -1.07830E+01 -6.81052E+00 -1.94197E+00  2.95929E+00
  -6.59905E-01 -1.22482E+01 -1.40153E+01 -1.23099E+01 -6.70039E+00 -4.20104E+00 -1.99499E+00 -8.31581E+00 -1.81191E+01 -2.22588E+01
  -2.18439E+01 -2.15011E+01 -1.84397E+01 -2.59903E+01 -2.99267E+01 -2.95247E+01 -3.00930E+01 -1.71853E+01 -1.56429E+01 -2.27040E+01
  -1.88935E+01 -2.47139E+01 -2.54731E+01 -2.26503E+01 -1.90276E+01 -1.29303E+01 -8.76499E+00 -9.36936E+00 -2.78838E+00 -8.04103E-01
   5.28330E+00  1.22592E+01  6.17678E+00  2.23700E+00  5.34269E+00  1.82282E+00 -4.08266E+00 -8.43560E+00 -1.36746E+01 -8.20025E+00
  -6.43078E+00  4.22493E-01  7.73589E+00  4.42021E+00  4.85783E+00  9.38214E-01 -1.64932E+00 -5.39291E+00 -3.71324E+00 -8.15740E+00
  -6.36638E+00 -6.56279E+00  2.41477E+00  3.94701E+00  8.29134E+00  1.63686E+01  2.61536E+01  1.84013E+01  5.65399E+00  9.03564E+00
  -2.37032E+00 -1.44127E+01 -5.75717E+00 -5.71160E+00  9.19391E+00  1.89040E+00  8.97491E+00  1.21202E+01  1.97573E+01  1.64877E+01
   1.12615E+01  1.23830E+01  1.05833E+01  1.00453E+01  8.10962E+00  1.48369E+01  1.52672E+01  1.03233E+01  8.13559E+00  1.23627E+01
   3.34676E+00 -2.53270E+00 -4.61542E+00  1.01176E+00  7.13280E+00  1.21710E+01  2.06294E+01  2.32440E+01  2.45999E+01  2.03288E+01
   2.23128E+01  2.53613E+01  3.55287E+01  5.85136E+01  8.53093E+01  9.37303E+01  8.22835E+01  8.66881E+01  1.26478E+02  1.67429E+02
   1.85219E+02  1.56744E+02  1.11326E+02  7.27400E+01  4.44161E+01  3.40457E+01  1.53801E+01  1.08577E+01  1.31972E+01  9.51450E+00
   1.30527E+01  1.58128E+01  1.82515E+01  1.67342E+01  8.36694E+00  1.42342E+01  1.20601E+01  9.77844E+00  1.33457E+01  1.04040E+01
   1.41940E+01  8.73363E+00  1.54656E+01  5.46717E+00  5.75316E+00  2.55932E+00  6.15352E+00  7.28109E+00  1.14825E+01  8.21860E+00
   2.03145E+01  9.23806E+00  1.25576E+01  1.45785E+01  1.20302E+01  1.17927E+01  9.14410E+00  8.23927E+00  8.78157E+00  3.96647E+00
   5.52404E+00  1.46406E+01  9.77294E+00  1.34191E+01  6.98646E+00  9.53242E+00  1.12038E+01  1.22511E+01  4.73953E+00  1.18528E+01
   1.46804E+01  9.45734E+00  1.10664E+01  1.09620E+01  9.56867E+00  8.73049E+00  1.03103E+01  9.05175E+00  8.18209E+00  1.47544E+01
   7.47867E+00  1.19436E+01  3.72707E+00  8.26126E+00  1.51183E+01  1.23475E+01  7.77377E+00  9.36292E+00  1.84423E+00  7.49484E+00
   1.38874E+01  1.18098E+01  1.29091E+01  3.53754E+00  1.14273E+01  1.28566E+01  8.71785E+00  1.32457E+01  2.20429E+01  1.69825E+01
   1.90877E+01  1.50017E+01  1.51404E+01  2.42726E+01  2.53077E+01  2.44072E+01  2.52722E+01  2.58025E+01  2.29020E+01  1.97533E+01
   1.40563E+01  1.25737E+01  1.92644E+01  1.83583E+01  1.62504E+01  1.43472E+01  1.64088E+01  1.63551E+01  1.27161E+01  5.40101E+00
   1.02107E+01  9.56499E+00  1.40378E+01  1.42838E+01  1.02600E+01  1.39992E+01  1.39390E+01  1.16978E+01  2.12156E+01  1.84291E+01
   1.66365E+01  1.97495E+01  1.69926E+01  1.96663E+01  1.71196E+01  1.80938E+01  1.71367E+01  1.70531E+01  1.20628E+01  1.02300E+01
   5.14363E+00  9.46436E+00  8.32429E+00  5.84388E+00  5.09407E+00  6.71452E+00  1.04930E+01  8.27515E+00  7.12590E+00  7.15823E+00
   6.66701E+00  1.33751E+01  1.55245E+01  1.49317E+01  1.66155E+01  1.76437E+01  1.70892E+01  1.65857E+01  1.61108E+01  1.35537E+01
   1.42898E+01  1.88444E+01  1.99203E+01  1.58983E+01  1.74486E+01  2.33273E+01  1.70015E+01  2.02114E+01  2.27886E+01  1.82751E+01
   1.06983E+01  1.64413E+01  1.16954E+01  1.75699E+01  1.43575E+01  9.57527E+00  9.33354E+00  9.77192E+00  6.64023E+00  2.49720E+00
   6.62396E+00  5.90552E+00  6.74347E+00  2.23800E+00  3.58041E+00  5.19572E+00  4.02103E-01  8.90949E-01  7.46334E+00  7.75323E+00
   6.52581E+00  4.11330E+00 -7.47282E-02  1.12717E+01 -3.14192E-02  5.75473E+00  2.21745E+00  5.23613E+00  3.05489E+00  1.42560E+00
   6.68245E-01 -8.79010E-01  1.86197E+00  7.94560E+00  1.04668E+00  1.31848E+00  1.14637E+01  2.77795E+00  4.74033E+00 -1.10476E+00
   2.95030E+00 -3.25466E-01  8.19819E+00  6.19099E+00  6.97290E+00  8.23219E-01  4.19010E+00  2.53713E+00  1.32780E+00  6.17754E+00
   3.28347E+00  1.00207E+01  8.23531E+00  6.03841E+00  4.95171E+00  9.66192E+00 -1.61280E+00  2.25951E+00  4.39541E+00  3.38319E+00
   3.69517E+00  8.47311E+00  5.74878E+00  7.11955E+00  1.03713E+01  1.04484E+01  7.18596E+00  9.27940E+00  9.43104E+00  7.74996E+00
   7.63909E+00  8.06610E+00  7.25951E+00  5.48097E+00  6.56944E+00  6.26793E+00  4.24071E+00  6.44029E+00  9.71221E+00  3.13114E+00
   5.52010E+00  4.52231E+00  1.26590E+01  8.06816E+00  7.79302E+00  7.96216E+00  1.42239E+01  1.34823E+01
 NY points of the fit to the data follow
  -5.75710E+01 -5.71540E+01 -5.62571E+01 -5.46880E+01 -5.17861E+01 -4.73873E+01 -3.97616E+01 -2.68742E+01 -1.25365E+01 -2.68233E+00
  -1.59873E+00 -8.18286E+00 -1.80839E+01 -2.70573E+01 -3.35927E+01 -3.82101E+01 -4.10872E+01 -4.28906E+01 -4.37413E+01 -4.38708E+01
  -4.35728E+01 -4.32870E+01 -4.32509E+01 -4.34642E+01 -4.33506E+01 -4.27284E+01 -4.21956E+01 -3.94462E+01 -3.27546E+01 -2.51269E+01
  -2.04916E+01 -1.99045E+01 -2.14858E+01 -2.40931E+01 -2.73848E+01 -3.11203E+01 -3.44569E+01 -3.64358E+01 -3.72886E+01 -3.72492E+01
  -3.61676E+01 -3.42895E+01 -3.24442E+01 -3.07023E+01 -2.77810E+01 -2.32097E+01 -1.88532E+01 -1.70667E+01 -1.86127E+01 -2.20634E+01
  -2.55766E+01 -2.82642E+01 -3.00071E+01 -3.08303E+01 -3.07432E+01 -3.02192E+01 -2.93456E+01 -2.78465E+01 -2.59036E+01 -2.41968E+01
  -2.35789E+01 -2.42337E+01 -2.56277E+01 -2.69745E+01 -2.76589E+01 -2.76332E+01 -2.69412E+01 -2.59364E+01 -2.49838E+01 -2.39487E+01
  -2.27591E+01 -2.16957E+01 -2.10221E+01 -2.04597E+01 -1.99745E+01 -1.98082E+01 -2.00823E+01 -2.07012E+01 -2.12945E+01 -2.15139E+01
  -2.13143E+01 -2.08463E+01 -2.03108E+01 -1.97620E+01 -1.92194E+01 -1.92123E+01 -2.01084E+01 -2.14393E+01 -2.22797E+01 -2.20965E+01
  -2.11314E+01 -1.99466E+01 -1.89897E+01 -1.81000E+01 -1.71275E+01 -1.61364E+01 -1.47099E+01 -1.14459E+01 -4.43233E+00  8.18480E+00
   3.38023E+01  6.56997E+01  8.56170E+01  8.27160E+01  6.28123E+01  3.93287E+01  2.06491E+01  8.08005E+00 -1.57082E+00 -7.74581E+00
  -1.03256E+01 -1.12156E+01 -1.15325E+01 -1.16378E+01 -1.16264E+01 -1.15381E+01 -1.13862E+01 -1.12280E+01 -1.10662E+01 -1.07813E+01
  -1.01252E+01 -8.38135E+00 -3.43801E+00  4.73033E+00  2.26213E+01  5.11506E+01  7.48282E+01  7.91322E+01  6.46983E+01  4.37945E+01
   2.63350E+01  1.56519E+01  8.04247E+00  1.18377E+00 -3.87356E+00 -7.59096E+00 -1.01064E+01 -1.07625E+01 -9.79317E+00 -7.75707E+00
  -5.51124E+00 -3.90913E+00 -3.43889E+00 -3.83712E+00 -4.53806E+00 -5.26672E+00 -5.77312E+00 -6.11955E+00 -6.38494E+00 -6.68315E+00
  -7.08701E+00 -7.77298E+00 -8.58486E+00 -9.03631E+00 -8.78286E+00 -7.84352E+00 -6.79739E+00 -6.29578E+00 -7.11879E+00 -9.21958E+00
  -1.12180E+01 -1.19356E+01 -1.07920E+01 -8.75653E+00 -7.72749E+00 -8.50627E+00 -1.03413E+01 -1.21848E+01 -1.31767E+01 -1.30343E+01
  -1.23944E+01 -1.20145E+01 -1.24886E+01 -1.38693E+01 -1.58436E+01 -1.66782E+01 -1.57063E+01 -1.36661E+01 -1.23409E+01 -1.29277E+01
  -1.41372E+01 -1.40963E+01 -1.25689E+01 -1.10212E+01 -1.05786E+01 -1.09389E+01 -1.01281E+01 -7.10139E+00 -2.76140E+00  1.41896E+00
   4.16243E+00  4.67581E+00  3.37016E+00  1.13009E+00 -8.33852E-01 -2.43478E+00 -3.69461E+00 -4.08599E+00 -3.15068E+00 -1.22785E+00
   6.67586E-01  2.81397E+00  5.07514E+00  6.79347E+00  7.00933E+00  4.96483E+00  1.60948E+00 -2.20201E+00 -5.56356E+00 -7.55384E+00
  -8.10938E+00 -7.30242E+00 -4.75842E+00  3.25970E-01  7.43612E+00  1.31145E+01  1.43771E+01  1.10038E+01  5.40855E+00 -6.35240E-01
  -6.81407E+00 -1.18898E+01 -1.31261E+01 -9.26291E+00 -2.59935E+00  3.66926E+00  8.03275E+00  1.04789E+01  1.13031E+01  1.03847E+01
   8.36635E+00  7.11024E+00  7.80179E+00  9.86908E+00  1.20881E+01  1.40670E+01  1.53532E+01  1.53041E+01  1.33270E+01  1.00419E+01
   6.77190E+00  4.92309E+00  5.26132E+00  7.89486E+00  1.18848E+01  1.56000E+01  1.80723E+01  1.91689E+01  1.93037E+01  1.92802E+01
   2.12650E+01  2.61666E+01  3.76011E+01  5.85703E+01  7.89593E+01  8.98423E+01  9.06147E+01  9.49296E+01  1.27188E+02  1.67859E+02
   1.81609E+02  1.56388E+02  1.13794E+02  7.58986E+01  5.04691E+01  3.42832E+01  2.05398E+01  1.34097E+01  1.13482E+01  1.06597E+01
   1.02962E+01  1.01986E+01  1.03572E+01  1.04729E+01  1.01958E+01  9.54430E+00  8.83700E+00  8.36711E+00  8.12332E+00  7.96772E+00
   7.99191E+00  8.23550E+00  8.53892E+00  8.70076E+00  8.69542E+00  8.59484E+00  8.49155E+00  8.38011E+00  8.31264E+00  8.47519E+00
   8.88700E+00  9.39225E+00  9.82884E+00  1.01328E+01  1.03249E+01  1.04304E+01  1.04173E+01  1.03529E+01  1.03490E+01  1.04399E+01
   1.05741E+01  1.06945E+01  1.07683E+01  1.07922E+01  1.07701E+01  1.06915E+01  1.05713E+01  1.04283E+01  1.02737E+01  1.01158E+01
   9.95954E+00  9.80812E+00  9.66776E+00  9.54757E+00  9.45609E+00  9.39828E+00  9.37747E+00  9.39762E+00  9.46578E+00  9.58994E+00
   9.77956E+00  1.00534E+01  1.04468E+01  1.09280E+01  1.15661E+01  1.21983E+01  1.22929E+01  1.17139E+01  1.08701E+01  1.02747E+01
   1.01378E+01  1.03364E+01  1.07883E+01  1.18622E+01  1.35198E+01  1.51392E+01  1.61945E+01  1.66774E+01  1.68590E+01  1.69885E+01
   1.71451E+01  1.72942E+01  1.75433E+01  1.78926E+01  1.83590E+01  1.88308E+01  1.88212E+01  1.81513E+01  1.71437E+01  1.62789E+01
   1.57984E+01  1.55912E+01  1.56985E+01  1.63341E+01  1.73287E+01  1.81162E+01  1.83496E+01  1.81295E+01  1.77019E+01  1.72527E+01
   1.67841E+01  1.62806E+01  1.58068E+01  1.53648E+01  1.49302E+01  1.44935E+01  1.40526E+01  1.36087E+01  1.31658E+01  1.27288E+01
   1.23021E+01  1.18895E+01  1.14948E+01  1.11229E+01  1.07792E+01  1.04686E+01  1.01951E+01  9.96154E+00  9.77161E+00  9.62959E+00
   9.54012E+00  9.50676E+00  9.53221E+00  9.61866E+00  9.76897E+00  9.98603E+00  1.02720E+01  1.06267E+01  1.10486E+01  1.15345E+01
   1.20802E+01  1.26798E+01  1.33245E+01  1.40020E+01  1.46977E+01  1.53951E+01  1.60772E+01  1.67254E+01  1.73200E+01  1.78410E+01
   1.82698E+01  1.85909E+01  1.87922E+01  1.88648E+01  1.88034E+01  1.86067E+01  1.82787E+01  1.78281E+01  1.72680E+01  1.66135E+01
   1.58817E+01  1.50907E+01  1.42603E+01  1.34102E+01  1.25586E+01  1.17213E+01  1.09112E+01  1.01393E+01  9.41454E+00  8.74358E+00
   8.13012E+00  7.57489E+00  7.07701E+00  6.63462E+00  6.24558E+00  5.90660E+00  5.61344E+00  5.36101E+00  5.14476E+00  4.96081E+00
   4.80605E+00  4.67702E+00  4.57011E+00  4.48176E+00  4.40952E+00  4.35172E+00  4.30711E+00  4.27391E+00  4.25024E+00  4.23443E+00
   4.22588E+00  4.22431E+00  4.22942E+00  4.24011E+00  4.25537E+00  4.27455E+00  4.29785E+00  4.32543E+00  4.35709E+00  4.39194E+00
   4.42939E+00  4.46936E+00  4.51237E+00  4.55855E+00  4.60753E+00  4.65849E+00  4.71118E+00  4.76579E+00  4.82286E+00  4.88225E+00
   4.94348E+00  5.00586E+00  5.06948E+00  5.13474E+00  5.20204E+00  5.27102E+00  5.34112E+00  5.41189E+00  5.48370E+00  5.55697E+00
   5.63188E+00  5.70786E+00  5.78443E+00  5.86144E+00  5.93945E+00  6.01875E+00  6.09926E+00  6.18030E+00  6.26156E+00  6.34317E+00
   6.42575E+00  6.50937E+00  6.59374E+00  6.67818E+00  6.76268E+00  6.84754E+00  6.93332E+00  7.01985E+00  7.10666E+00  7.19325E+00
   7.27986E+00  7.36691E+00  7.45478E+00  7.54305E+00  7.63126E+00  7.71912E+00  7.80714E+00  7.89572E+00
 NY background values follow
    -6.044E+01   -5.995E+01   -5.945E+01   -5.895E+01   -5.845E+01   -5.796E+01   -5.746E+01   -5.696E+01   -5.646E+01   -5.596E+01
    -5.547E+01   -5.497E+01   -5.447E+01   -5.398E+01   -5.348E+01   -5.298E+01   -5.249E+01   -5.200E+01   -5.150E+01   -5.101E+01
    -5.052E+01   -5.002E+01   -4.953E+01   -4.904E+01   -4.856E+01   -4.807E+01   -4.758E+01   -4.710E+01   -4.661E+01   -4.613E+01
    -4.565E+01   -4.517E+01   -4.469E+01   -4.421E+01   -4.374E+01   -4.327E+01   -4.279E+01   -4.232E+01   -4.186E+01   -4.139E+01
    -4.093E+01   -4.047E+01   -4.001E+01   -3.955E+01   -3.909E+01   -3.864E+01   -3.819E+01   -3.774E+01   -3.729E+01   -3.685E+01
    -3.641E+01   -3.597E+01   -3.554E+01   -3.510E+01   -3.467E+01   -3.424E+01   -3.382E+01   -3.340E+01   -3.298E+01   -3.256E+01
    -3.215E+01   -3.173E+01   -3.133E+01   -3.092E+01   -3.052E+01   -3.012E+01   -2.972E+01   -2.933E+01   -2.894E+01   -2.856E+01
    -2.817E+01   -2.779E+01   -2.742E+01   -2.704E+01   -2.667E+01   -2.631E+01   -2.594E+01   -2.558E+01   -2.523E+01   -2.488E+01
    -2.453E+01   -2.418E+01   -2.384E+01   -2.350E+01   -2.317E+01   -2.284E+01   -2.251E+01   -2.219E+01   -2.187E+01   -2.156E+01
    -2.125E+01   -2.094E+01   -2.064E+01   -2.034E+01   -2.005E+01   -1.976E+01   -1.947E+01   -1.919E+01   -1.891E+01   -1.863E+01
    -1.836E+01   -1.810E+01   -1.783E+01   -1.757E+01   -1.732E+01   -1.707E+01   -1.682E+01   -1.658E+01   -1.634E+01   -1.610E+01
    -1.587E+01   -1.564E+01   -1.541E+01   -1.519E+01   -1.497E+01   -1.476E+01   -1.455E+01   -1.434E+01   -1.414E+01   -1.394E+01
    -1.374E+01   -1.355E+01   -1.336E+01   -1.318E+01   -1.300E+01   -1.282E+01   -1.264E+01   -1.247E+01   -1.231E+01   -1.214E+01
    -1.198E+01   -1.182E+01   -1.167E+01   -1.152E+01   -1.137E+01   -1.123E+01   -1.109E+01   -1.095E+01   -1.082E+01   -1.069E+01
    -1.056E+01   -1.043E+01   -1.031E+01   -1.019E+01   -1.008E+01   -9.961E+00   -9.849E+00   -9.739E+00   -9.631E+00   -9.525E+00
    -9.421E+00   -9.318E+00   -9.217E+00   -9.118E+00   -9.020E+00   -8.924E+00   -8.829E+00   -8.734E+00   -8.641E+00   -8.549E+00
    -8.457E+00   -8.366E+00   -8.276E+00   -8.186E+00   -8.096E+00   -8.007E+00   -7.917E+00   -7.828E+00   -7.738E+00   -7.649E+00
    -7.559E+00   -7.468E+00   -7.377E+00   -7.285E+00   -7.192E+00   -7.099E+00   -7.004E+00   -6.909E+00   -6.812E+00   -6.714E+00
    -6.614E+00   -6.513E+00   -6.410E+00   -6.305E+00   -6.199E+00   -6.092E+00   -5.983E+00   -5.873E+00   -5.762E+00   -5.649E+00
    -5.536E+00   -5.421E+00   -5.305E+00   -5.188E+00   -5.071E+00   -4.953E+00   -4.834E+00   -4.714E+00   -4.593E+00   -4.473E+00
    -4.351E+00   -4.229E+00   -4.107E+00   -3.985E+00   -3.862E+00   -3.739E+00   -3.616E+00   -3.493E+00   -3.370E+00   -3.247E+00
    -3.124E+00   -3.002E+00   -2.879E+00   -2.757E+00   -2.636E+00   -2.514E+00   -2.394E+00   -2.274E+00   -2.154E+00   -2.036E+00
    -1.918E+00   -1.801E+00   -1.685E+00   -1.569E+00   -1.455E+00   -1.342E+00   -1.230E+00   -1.120E+00   -1.010E+00   -9.019E-01
    -7.949E-01   -6.891E-01   -5.845E-01   -4.812E-01   -3.791E-01   -2.783E-01   -1.787E-01   -8.032E-02    1.679E-02    1.126E-01
     2.072E-01    3.006E-01    3.926E-01    4.834E-01    5.729E-01    6.612E-01    7.481E-01    8.338E-01    9.182E-01    1.001E+00
     1.083E+00    1.164E+00    1.243E+00    1.321E+00    1.397E+00    1.473E+00    1.547E+00    1.619E+00    1.691E+00    1.761E+00
     1.830E+00    1.897E+00    1.963E+00    2.028E+00    2.091E+00    2.153E+00    2.214E+00    2.273E+00    2.331E+00    2.388E+00
     2.443E+00    2.497E+00    2.550E+00    2.601E+00    2.651E+00    2.699E+00    2.747E+00    2.793E+00    2.837E+00    2.881E+00
     2.923E+00    2.964E+00    3.004E+00    3.042E+00    3.080E+00    3.116E+00    3.151E+00    3.185E+00    3.218E+00    3.250E+00
     3.280E+00    3.310E+00    3.338E+00    3.366E+00    3.392E+00    3.418E+00    3.442E+00    3.466E+00    3.489E+00    3.510E+00
     3.531E+00    3.551E+00    3.570E+00    3.588E+00    3.605E+00    3.621E+00    3.637E+00    3.652E+00    3.666E+00    3.679E+00
     3.691E+00    3.703E+00    3.714E+00    3.724E+00    3.733E+00    3.742E+00    3.750E+00    3.758E+00    3.764E+00    3.771E+00
     3.776E+00    3.781E+00    3.785E+00    3.789E+00    3.792E+00    3.795E+00    3.797E+00    3.798E+00    3.799E+00    3.799E+00
     3.798E+00    3.798E+00    3.796E+00    3.794E+00    3.792E+00    3.789E+00    3.785E+00    3.781E+00    3.776E+00    3.771E+00
     3.766E+00    3.760E+00    3.753E+00    3.746E+00    3.739E+00    3.731E+00    3.723E+00    3.714E+00    3.705E+00    3.695E+00
     3.685E+00    3.675E+00    3.664E+00    3.653E+00    3.641E+00    3.629E+00    3.617E+00    3.604E+00    3.591E+00    3.578E+00
     3.564E+00    3.550E+00    3.536E+00    3.521E+00    3.506E+00    3.491E+00    3.475E+00    3.460E+00    3.444E+00    3.428E+00
     3.412E+00    3.397E+00    3.381E+00    3.365E+00    3.349E+00    3.333E+00    3.318E+00    3.302E+00    3.287E+00    3.272E+00
     3.258E+00    3.243E+00    3.230E+00    3.216E+00    3.203E+00    3.190E+00    3.178E+00    3.166E+00    3.155E+00    3.144E+00
     3.134E+00    3.125E+00    3.117E+00    3.109E+00    3.102E+00    3.095E+00    3.090E+00    3.085E+00    3.081E+00    3.079E+00
     3.077E+00    3.076E+00    3.076E+00    3.077E+00    3.080E+00    3.083E+00    3.088E+00    3.094E+00    3.101E+00    3.109E+00
     3.119E+00    3.130E+00    3.142E+00    3.155E+00    3.169E+00    3.185E+00    3.202E+00    3.220E+00    3.240E+00    3.260E+00
     3.282E+00    3.305E+00    3.330E+00    3.356E+00    3.382E+00    3.411E+00    3.440E+00    3.471E+00    3.503E+00    3.536E+00
     3.570E+00    3.606E+00    3.643E+00    3.681E+00    3.721E+00    3.762E+00    3.804E+00    3.847E+00    3.892E+00    3.937E+00
     3.985E+00    4.033E+00    4.083E+00    4.134E+00    4.186E+00    4.239E+00    4.294E+00    4.350E+00    4.408E+00    4.466E+00
     4.526E+00    4.588E+00    4.650E+00    4.714E+00    4.779E+00    4.845E+00    4.913E+00    4.982E+00    5.051E+00    5.122E+00
     5.194E+00    5.267E+00    5.341E+00    5.416E+00    5.491E+00    5.568E+00    5.645E+00    5.724E+00    5.803E+00    5.883E+00
     5.963E+00    6.044E+00    6.126E+00    6.209E+00    6.292E+00    6.375E+00    6.459E+00    6.544E+00    6.629E+00    6.714E+00
     6.800E+00    6.886E+00    6.972E+00    7.059E+00    7.146E+00    7.233E+00    7.320E+00    7.408E+00    7.495E+00    7.583E+00
     7.670E+00    7.758E+00    7.845E+00    7.933E+00    8.020E+00    8.107E+00    8.194E+00    8.281E+00
 Ala      Conc. = 1.27E+02
