 LCModel (Version 6.3-1L) Copyright: S.W. Provencher.          Ref.: Magn. Reson. Med. 30:672-679 (1993).                
 Slice#2 Row#1 Col#7  K_02_press_1_raw_act
 36 lines in following concentration table = NCONC+1
    Conc.  %SD /Cr+PCr  Metabolite                                         
   51.313 145%   0.352 Ala                                                 
   13.651  75% 9.4E-02 Asp                                                 
   46.058 242%   0.316 Cr                                                  
   99.542 113%   0.684 PCr                                                 
    8.079  76% 5.5E-02 GABA                                                
    8.678  71% 6.0E-02 Glc                                                 
   26.757 554%   0.184 Gln                                                 
  172.995  94%   1.188 Glu                                                 
   44.103  31%   0.303 GPC                                                 
    0.000 999%   0.000 PCh                                                 
  103.536  50%   0.711 GSH                                                 
  609.618  27%   4.187 Ins                                                 
    0.000 999%   0.000 Lac                                                 
    0.000 999%   0.000 NAA                                                 
    0.000 999%   0.000 NAAG                                                
    3.113  66% 2.1E-02 Scyllo                                              
   14.385  71% 9.9E-02 Tau                                                 
   14.711 104%   0.101 -CrCH2                                              
   44.103  31%   0.303 GPC+PCh                                             
    0.000 999%   0.000 NAA+NAAG                                            
  145.599  25%   1.000 Cr+PCr                                              
  199.752 109%   1.372 Glu+Gln                                             
 3.31E+03  12%  22.718 Lip13a                                              
    0.000 999%   0.000 Lip13b                                              
  994.476  14%   6.830 Lip09                                               
    5.161 387% 3.5E-02 MM09                                                
  273.489  45%   1.878 Lip20                                               
    0.000 999%   0.000 MM20                                                
    1.267 791% 8.7E-03 MM12                                                
   27.568 141%   0.189 MM14                                                
    5.325 469% 3.7E-02 MM17                                                
 3.31E+03  12%  22.718 Lip13a+Lip13b                                       
 3.34E+03  12%  22.916 MM14+Lip13a+Lip13b+MM12                             
  999.638  14%   6.866 MM09+Lip09                                          
  273.489  45%   1.878 MM20+Lip20                                          
   6 lines in following misc. output table
  FWHM = 0.054 ppm    S/N =   1                                            
  Data shift = 0.046 ppm                                                   
  Ph: -20 deg       3.7 deg/ppm                                            
  alphaB,S = 1.4E+00,   3.2E+01                                            
   14 spline knots.   Ns = 5(1)                                            
  ( 9) 2 infls.   ( 9) 1 extrs.                                            
  498 points on ppm-axis = NY
      4.000000     3.992357     3.984714     3.977070     3.969427     3.961784     3.954141     3.946497     3.938854     3.931211
      3.923568     3.915925     3.908281     3.900638     3.892995     3.885352     3.877708     3.870065     3.862422     3.854779
      3.847136     3.839492     3.831849     3.824206     3.816563     3.808919     3.801276     3.793633     3.785990     3.778347
      3.770703     3.763060     3.755417     3.747774     3.740130     3.732487     3.724844     3.717201     3.709558     3.701914
      3.694271     3.686628     3.678985     3.671341     3.663698     3.656055     3.648412     3.640769     3.633125     3.625482
      3.617839     3.610196     3.602552     3.594909     3.587266     3.579623     3.571980     3.564336     3.556693     3.549050
      3.541407     3.533763     3.526120     3.518477     3.510834     3.503191     3.495547     3.487904     3.480261     3.472618
      3.464974     3.457331     3.449688     3.442045     3.434402     3.426758     3.419115     3.411472     3.403829     3.396185
      3.388542     3.380899     3.373256     3.365613     3.357969     3.350326     3.342683     3.335040     3.327396     3.319753
      3.312110     3.304467     3.296824     3.289180     3.281537     3.273894     3.266251     3.258607     3.250964     3.243321
      3.235678     3.228034     3.220391     3.212748     3.205105     3.197462     3.189818     3.182175     3.174532     3.166889
      3.159245     3.151602     3.143959     3.136316     3.128673     3.121029     3.113386     3.105743     3.098100     3.090456
      3.082813     3.075170     3.067527     3.059884     3.052240     3.044597     3.036954     3.029311     3.021667     3.014024
      3.006381     2.998738     2.991095     2.983451     2.975808     2.968165     2.960522     2.952878     2.945235     2.937592
      2.929949     2.922306     2.914662     2.907019     2.899376     2.891733     2.884089     2.876446     2.868803     2.861160
      2.853517     2.845873     2.838230     2.830587     2.822944     2.815300     2.807657     2.800014     2.792371     2.784728
      2.777084     2.769441     2.761798     2.754155     2.746511     2.738868     2.731225     2.723582     2.715939     2.708295
      2.700652     2.693009     2.685366     2.677722     2.670079     2.662436     2.654793     2.647150     2.639506     2.631863
      2.624220     2.616577     2.608933     2.601290     2.593647     2.586004     2.578361     2.570717     2.563074     2.555431
      2.547788     2.540144     2.532501     2.524858     2.517215     2.509572     2.501928     2.494285     2.486642     2.478999
      2.471355     2.463712     2.456069     2.448426     2.440783     2.433139     2.425496     2.417853     2.410210     2.402566
      2.394923     2.387280     2.379637     2.371994     2.364350     2.356707     2.349064     2.341421     2.333777     2.326134
      2.318491     2.310848     2.303205     2.295561     2.287918     2.280275     2.272632     2.264988     2.257345     2.249702
      2.242059     2.234416     2.226772     2.219129     2.211486     2.203843     2.196199     2.188556     2.180913     2.173270
      2.165627     2.157983     2.150340     2.142697     2.135054     2.127410     2.119767     2.112124     2.104481     2.096838
      2.089194     2.081551     2.073908     2.066265     2.058621     2.050978     2.043335     2.035692     2.028049     2.020405
      2.012762     2.005119     1.997476     1.989833     1.982190     1.974546     1.966903     1.959260     1.951617     1.943974
      1.936331     1.928688     1.921045     1.913402     1.905759     1.898115     1.890472     1.882829     1.875186     1.867543
      1.859900     1.852257     1.844614     1.836971     1.829327     1.821684     1.814041     1.806398     1.798755     1.791112
      1.783469     1.775826     1.768183     1.760540     1.752896     1.745253     1.737610     1.729967     1.722324     1.714681
      1.707038     1.699395     1.691752     1.684108     1.676465     1.668822     1.661179     1.653536     1.645893     1.638250
      1.630607     1.622964     1.615321     1.607677     1.600034     1.592391     1.584748     1.577105     1.569462     1.561819
      1.554176     1.546533     1.538890     1.531246     1.523603     1.515960     1.508317     1.500674     1.493031     1.485388
      1.477745     1.470102     1.462458     1.454815     1.447172     1.439529     1.431886     1.424243     1.416600     1.408957
      1.401314     1.393671     1.386027     1.378384     1.370741     1.363098     1.355455     1.347812     1.340169     1.332526
      1.324883     1.317240     1.309596     1.301953     1.294310     1.286667     1.279024     1.271381     1.263738     1.256095
      1.248452     1.240808     1.233165     1.225522     1.217879     1.210236     1.202593     1.194950     1.187307     1.179664
      1.172021     1.164377     1.156734     1.149091     1.141448     1.133805     1.126162     1.118519     1.110876     1.103233
      1.095590     1.087946     1.080303     1.072660     1.065017     1.057374     1.049731     1.042088     1.034445     1.026802
      1.019158     1.011515     1.003872     0.996229     0.988586     0.980943     0.973300     0.965657     0.958014     0.950371
      0.942727     0.935084     0.927441     0.919798     0.912155     0.904512     0.896869     0.889226     0.881583     0.873940
      0.866296     0.858653     0.851010     0.843367     0.835724     0.828081     0.820438     0.812795     0.805152     0.797508
      0.789865     0.782222     0.774579     0.766936     0.759293     0.751650     0.744007     0.736364     0.728721     0.721077
      0.713434     0.705791     0.698148     0.690505     0.682862     0.675219     0.667576     0.659933     0.652290     0.644646
      0.637003     0.629360     0.621717     0.614074     0.606431     0.598788     0.591145     0.583502     0.575858     0.568215
      0.560572     0.552929     0.545286     0.537643     0.530000     0.522357     0.514714     0.507071     0.499427     0.491784
      0.484141     0.476498     0.468855     0.461212     0.453569     0.445925     0.438282     0.430639     0.422996     0.415353
      0.407710     0.400067     0.392424     0.384780     0.377137     0.369494     0.361851     0.354208     0.346565     0.338922
      0.331278     0.323635     0.315992     0.308349     0.300706     0.293063     0.285420     0.277777     0.270133     0.262490
      0.254847     0.247204     0.239561     0.231918     0.224275     0.216631     0.208988     0.201345
 NY phased data points follow
  -2.20552E-02  1.62727E+00 -3.66755E-01  8.04193E-01 -2.55507E-01  7.72198E-01 -1.31802E+00  2.32232E+00  8.95988E-01  3.45240E+00
   5.17736E+00  2.32432E+00  1.51063E+00  2.07478E+00 -4.04373E+00  1.92471E+00  2.70580E+00  3.97237E+00  5.68298E+00  5.89979E-01
  -9.04054E-01  8.72312E-01  1.12200E-01  3.07040E+00  3.93561E-01  2.71923E+00  2.23162E+00  5.93913E+00 -1.39524E-01  3.07624E+00
  -2.79312E+00  7.43772E+00  1.91305E+00 -1.12256E+00  2.23703E-01  2.82686E+00  3.18171E+00  2.60596E+00  4.72018E+00  1.28540E+00
   4.86523E+00  2.20597E+00  1.42411E-01  3.77402E-01 -3.55783E-01  3.92817E+00  5.69086E+00  4.33904E+00  6.21306E-01  8.26205E-01
  -1.82074E+00  1.28212E+00  1.18809E+00  3.70998E+00  1.81217E+00  3.58254E+00  2.29522E+00  2.23781E+00 -3.73235E+00  9.45028E-01
  -1.23092E+00  5.61537E-01  1.77789E+00  4.70187E+00 -6.65701E-01 -3.19615E-02  2.72896E+00  3.92260E+00  4.61022E+00  2.60651E+00
  -2.95806E+00  5.57815E-01  1.55616E+00  4.21108E+00  1.26832E+00  7.91278E-01  1.43465E+00  3.59422E+00 -9.13603E-01 -3.22565E+00
   2.60709E+00 -7.31254E-01  1.23448E+00  1.04031E+00  5.96542E-01 -2.40604E+00  2.78298E+00  2.45535E+00 -1.03670E+00  1.73325E-01
  -3.20196E+00 -4.30055E+00 -7.29080E-01  2.08707E+00  1.65617E+00 -6.20987E-01  4.33411E+00  1.66032E+00 -8.68152E+00  3.52712E-01
  -5.91115E+00 -2.97517E+00 -8.26817E-02  7.97187E+00  7.82475E+00  9.33867E-01  2.88342E-01 -2.86352E-01  4.33890E-01 -1.30796E+00
   9.84917E-01 -3.78358E+00 -3.99876E-02  1.59153E-02 -1.06460E+00  1.37187E-01 -2.61204E+00  1.22599E+00 -3.74004E+00 -1.48172E+00
  -8.23478E-01 -4.70664E-01 -1.33463E+00  2.48712E+00  4.76963E+00  1.01862E+00  6.84123E+00  4.13766E+00  1.81690E+00  5.44034E+00
   1.40425E+00  9.01107E-02 -4.48406E+00  4.01531E-01  2.96618E+00 -1.04054E+00 -2.35163E+00  1.16218E+00 -3.92143E+00 -9.69210E-01
   2.21205E+00 -1.68793E+00 -2.88603E+00  2.50954E+00 -8.48098E-01 -4.20185E+00 -2.09964E+00  3.63728E+00  2.56315E+00  3.17718E+00
  -1.59237E+00 -2.05927E+00 -8.13266E-01 -8.99281E-01 -1.33478E+00 -4.35578E+00 -5.73094E+00  1.54376E+00 -4.68764E+00  3.41117E-01
  -1.61704E+00  1.09644E+00  2.84211E+00 -1.64267E+00  2.31074E+00 -7.94072E-01  1.25084E+00  1.04214E+00 -2.69313E+00 -4.06962E+00
  -2.30926E+00  1.69823E+00 -2.47660E+00 -7.65182E-01 -2.77216E+00 -1.45299E+00 -6.62668E+00 -2.84480E+00 -1.45293E+00 -4.26034E+00
  -3.21467E+00 -3.85152E+00 -3.59217E+00 -2.83742E+00 -3.66603E+00 -2.16719E-01 -3.10077E+00 -3.70406E+00  9.64036E-01 -2.57994E+00
  -3.97566E+00 -1.66370E+00  2.22182E-02 -7.68559E+00  1.09450E-01 -2.51268E+00 -5.80809E+00 -1.04370E+00 -5.71563E+00 -1.74018E+00
  -3.17235E+00 -5.55866E+00 -2.21936E+00  2.64274E-02 -1.31339E+00 -2.11440E+00 -7.06579E+00 -4.16946E+00  3.19213E-01  2.26149E+00
  -5.68814E-01 -6.27317E-01 -4.73136E+00  2.66456E+00 -4.24866E+00  1.96121E+00  2.11130E+00  4.45213E+00  1.82610E+00 -2.47222E-01
  -4.65641E-01 -3.29761E+00 -2.94349E+00 -2.68601E-01 -1.00562E+00 -2.44197E+00 -2.85996E+00  4.07230E-01 -3.22562E+00 -9.70531E-02
  -1.59841E+00 -1.28277E+00  1.40312E+00 -5.27099E-01  3.77836E+00 -3.87583E+00  1.79081E+00 -2.43167E+00 -1.91508E+00 -1.31264E+00
  -3.34156E+00 -1.46726E+00  1.44903E+00 -4.73847E-01 -4.60357E-01 -2.57129E+00  2.43487E+00 -8.70598E-01 -3.12703E+00  2.96155E+00
   1.22408E+00  1.38115E+00  3.49852E+00  7.00619E-01  9.81209E-01 -3.18264E+00 -1.96110E+00 -7.72662E-01 -4.30602E+00  1.26102E+00
  -1.00073E+00  3.65690E+00  4.22180E+00 -3.22174E+00  2.16456E+00 -1.63993E+00  5.02279E-01 -3.55483E+00 -1.57670E+00 -5.50872E-01
  -1.39745E-01  9.29034E-01 -2.32905E+00 -4.30381E+00 -9.94879E-01 -3.87532E+00 -6.10866E-01 -1.57013E-01 -6.81418E+00 -3.80161E+00
  -4.42283E+00 -3.32333E+00  6.30678E-01 -6.51486E+00  4.48904E-01 -2.88746E+00 -6.92473E-01  1.41605E+00  2.67992E+00 -1.06707E-01
  -2.45729E+00 -1.97568E+00  2.09687E+00 -6.79209E+00  2.04992E+00  2.15816E+00  6.46569E-01 -6.68285E-01  1.39449E+00  1.83475E+00
   3.26011E+00  1.77251E+00  6.48091E+00  1.99936E+00  9.53562E-01 -1.54626E+00  4.27988E-01  1.19026E+00  1.08234E+00  4.58383E-01
   1.89877E-01  6.82661E+00  8.12220E+00  4.46249E+00 -2.79320E+00  6.79829E+00  4.57215E-01  1.55271E+00  1.63350E+00  4.42303E+00
   3.24723E+00  2.86171E+00  5.66915E+00  6.00377E+00  7.72792E+00  2.44051E+00  6.75574E+00  6.68421E+00  5.33289E+00  9.00343E+00
   6.36687E+00  8.70057E+00  8.30439E+00  6.85294E+00  6.00010E+00  4.23293E+00  1.28145E+01  1.20418E+01  7.53652E+00  1.00267E+01
   1.13158E+01  4.91807E+00  9.09571E+00  6.15650E+00  8.14089E+00  8.07461E+00  4.94376E+00  1.01945E+01  2.20086E+00  9.66225E+00
   6.12692E+00  6.56180E+00  1.00175E+01  7.90626E+00  7.97496E+00  6.89191E+00  8.35154E+00  4.11433E+00  6.79498E+00  8.61136E+00
   1.00325E+01  5.52686E+00  4.78401E+00  6.00381E+00  6.62069E+00  9.38008E+00  3.25769E+00  5.54132E+00  7.90605E+00  9.95410E+00
   2.22453E+00  5.35029E+00  8.56551E+00  7.75697E+00  8.27860E+00  4.18839E+00  9.40820E+00  1.00302E+01  1.23441E+01  7.34265E+00
   5.18112E+00  8.98781E+00  8.65671E+00  9.03223E+00  1.15878E+01  4.84846E+00  9.19799E+00  5.23941E+00  4.71550E+00  3.20621E+00
   1.15278E+01  1.27474E+01  3.03371E+00  7.49285E+00  1.27535E+01  6.18899E+00  8.13481E+00  4.33211E+00  9.29591E+00  6.53652E+00
   8.59447E+00  7.59132E-01  5.37138E+00  6.54943E+00  1.18456E+01  5.15559E+00  6.38682E+00  8.46316E+00  5.57692E+00  2.07942E+00
   5.83558E+00  8.59850E+00  8.63953E+00  1.93066E+00  5.96089E+00  2.60172E+00  4.95496E+00  2.99447E+00 -2.43538E+00  6.18976E+00
   6.02202E+00  3.84073E+00  5.88052E+00  5.55586E+00  3.79793E+00  6.36112E+00  3.59420E+00  1.06614E+01  3.31635E+00  2.83404E+00
   3.74758E+00  2.12011E+00  3.98072E+00  3.84173E+00  4.96317E+00  3.27876E-01  4.38214E+00  3.46506E+00  2.38892E+00  5.17525E+00
   5.84711E+00  4.98401E+00  4.98044E+00  3.26607E+00  3.75699E+00  6.42019E+00  2.39677E+00  5.13228E+00  1.91830E+00  3.29040E-01
  -6.16858E-02  2.34799E+00  5.71556E+00  7.03329E+00  3.17261E+00  3.39578E+00  2.51139E+00  4.19809E+00 -1.78390E+00  6.36587E+00
   2.94116E+00  5.69298E+00  6.07040E+00  3.79131E+00  2.04989E+00 -1.25037E+00  4.12598E+00  2.14367E+00  1.93609E+00 -1.06791E+00
   3.00515E+00  7.45406E-01  3.60029E+00  5.15443E+00 -5.83058E-02 -1.14762E-02 -6.47278E-01  2.82499E+00  4.27513E+00  2.02994E+00
   1.41060E+00  5.97718E+00  3.55323E+00 -5.12762E-01  4.02518E+00  1.96241E+00  4.51683E+00  1.03577E+00  1.20050E+00 -2.97572E+00
   1.37873E-01 -9.87152E-01 -1.52243E+00  1.02485E+00  8.90649E-01  1.18715E+00  3.28545E+00  1.95910E+00
 NY points of the fit to the data follow
   4.78970E-01  1.79967E-01 -1.56041E-02 -2.32814E-02  2.15484E-01  6.42256E-01  1.20096E+00  1.81959E+00  2.36285E+00  2.68816E+00
   2.72285E+00  2.48651E+00  2.05738E+00  1.52088E+00  9.59345E-01  4.82580E-01  1.83417E-01  3.03008E-03 -7.41395E-02 -8.40695E-02
  -7.10464E-02 -5.47664E-02 -5.29096E-02 -7.83080E-02 -5.77179E-02  1.71585E-01  5.82898E-01  1.08713E+00  1.63985E+00  2.16349E+00
   2.50269E+00  2.55271E+00  2.39038E+00  2.13330E+00  1.78452E+00  1.32168E+00  8.47413E-01  4.88656E-01  1.57344E-01 -1.62422E-01
  -3.98179E-01 -4.44502E-01 -1.30741E-01  6.37047E-01  1.74353E+00  2.91996E+00  3.86782E+00  4.33825E+00  4.16255E+00  3.37730E+00
   2.25011E+00  1.09402E+00  8.58513E-02 -6.59861E-01 -9.46146E-01 -7.24446E-01 -2.05033E-01  3.96882E-01  9.47958E-01  1.34428E+00
   1.49382E+00  1.35904E+00  1.00752E+00  5.69634E-01  1.62379E-01 -1.39086E-01 -2.50221E-01 -1.30894E-01  1.47737E-01  4.84303E-01
   7.79276E-01  9.83590E-01  1.06211E+00  1.00849E+00  8.67444E-01  6.87716E-01  5.06416E-01  3.29898E-01  1.76908E-01  8.12883E-02
   2.08188E-02 -3.74760E-02 -1.52824E-01 -3.72123E-01 -7.08578E-01 -1.12623E+00 -1.55942E+00 -1.92216E+00 -2.12438E+00 -2.10936E+00
  -1.89718E+00 -1.54065E+00 -1.11711E+00 -7.31811E-01 -4.90186E-01 -4.33708E-01 -5.40187E-01 -7.10067E-01 -6.82521E-01 -2.35480E-01
   5.18192E-01  1.41274E+00  2.26389E+00  2.85514E+00  2.97153E+00  2.58455E+00  1.87882E+00  1.07097E+00  2.77612E-01 -4.19937E-01
  -8.37937E-01 -9.46746E-01 -9.67507E-01 -9.69181E-01 -9.73013E-01 -9.85886E-01 -1.00817E+00 -1.03373E+00 -1.05451E+00 -1.05449E+00
  -9.97693E-01 -7.46475E-01 -5.10455E-02  1.00391E+00  2.18661E+00  3.29569E+00  4.10786E+00  4.38978E+00  4.09431E+00  3.39382E+00
   2.50637E+00  1.56735E+00  6.33051E-01 -1.61563E-01 -6.36671E-01 -9.36586E-01 -1.12849E+00 -1.18188E+00 -1.10619E+00 -9.36112E-01
  -7.08540E-01 -4.85467E-01 -3.41282E-01 -2.90138E-01 -3.10988E-01 -3.80245E-01 -4.63344E-01 -5.40383E-01 -5.97645E-01 -6.34505E-01
  -6.68133E-01 -6.98248E-01 -7.20198E-01 -7.31656E-01 -7.33776E-01 -7.28152E-01 -7.16445E-01 -7.05800E-01 -7.00936E-01 -7.02672E-01
  -7.10139E-01 -7.23428E-01 -7.39919E-01 -7.53484E-01 -7.62139E-01 -7.66100E-01 -7.66416E-01 -7.65365E-01 -7.63572E-01 -7.62636E-01
  -7.65528E-01 -7.74885E-01 -7.92595E-01 -8.19231E-01 -8.52029E-01 -8.88409E-01 -9.25821E-01 -9.61811E-01 -9.94795E-01 -1.02285E+00
  -1.05231E+00 -1.08607E+00 -1.12254E+00 -1.15792E+00 -1.18013E+00 -1.16529E+00 -1.09326E+00 -9.63649E-01 -8.03259E-01 -6.51004E-01
  -5.44213E-01 -5.19808E-01 -6.14909E-01 -8.17987E-01 -1.05626E+00 -1.26383E+00 -1.39218E+00 -1.40210E+00 -1.28304E+00 -1.07231E+00
  -8.34919E-01 -6.20152E-01 -4.55104E-01 -3.58598E-01 -3.44950E-01 -4.23284E-01 -5.52992E-01 -6.97947E-01 -8.28423E-01 -9.09567E-01
  -9.02933E-01 -7.56073E-01 -4.77725E-01 -1.46007E-01  1.56057E-01  3.60944E-01  4.03651E-01  2.15637E-01 -1.74696E-01 -6.45859E-01
  -1.06865E+00 -1.36364E+00 -1.46578E+00 -1.32044E+00 -9.88375E-01 -5.99059E-01 -2.64039E-01 -4.48011E-02  5.66506E-02  4.54506E-02
  -4.09542E-02 -1.10147E-01 -7.43702E-02  6.70821E-02  2.48372E-01  3.97948E-01  4.68522E-01  4.30205E-01  2.45891E-01 -4.46921E-02
  -3.22674E-01 -4.96129E-01 -5.40855E-01 -4.53930E-01 -2.40027E-01  3.62139E-02  2.69679E-01  4.04176E-01  4.46141E-01  4.25582E-01
   3.59840E-01  2.89697E-01  2.62134E-01  2.77650E-01  3.03775E-01  3.31089E-01  3.59610E-01  3.85474E-01  4.10866E-01  4.47342E-01
   5.00910E-01  5.54720E-01  5.96661E-01  6.18887E-01  6.15627E-01  5.78263E-01  5.14477E-01  4.41749E-01  3.73398E-01  3.17364E-01
   2.80474E-01  2.69726E-01  2.81088E-01  3.03139E-01  3.32596E-01  3.60153E-01  3.77119E-01  3.81488E-01  3.75516E-01  3.61294E-01
   3.45646E-01  3.36938E-01  3.38149E-01  3.48525E-01  3.66403E-01  3.89770E-01  4.16768E-01  4.45276E-01  4.73548E-01  5.02257E-01
   5.31937E-01  5.62666E-01  5.94984E-01  6.29533E-01  6.66447E-01  7.05515E-01  7.46756E-01  7.90385E-01  8.36371E-01  8.84677E-01
   9.35449E-01  9.88657E-01  1.04433E+00  1.10252E+00  1.16332E+00  1.22682E+00  1.29326E+00  1.36289E+00  1.43601E+00  1.51292E+00
   1.59403E+00  1.67974E+00  1.77044E+00  1.86660E+00  1.96876E+00  2.07762E+00  2.19406E+00  2.31920E+00  2.45467E+00  2.60306E+00
   2.76927E+00  2.96483E+00  3.21087E+00  3.48039E+00  3.71374E+00  3.88087E+00  3.96532E+00  3.95675E+00  3.87079E+00  3.75543E+00
   3.69803E+00  3.78164E+00  4.01584E+00  4.39290E+00  4.90163E+00  5.45873E+00  5.96224E+00  6.37161E+00  6.68659E+00  6.92977E+00
   7.11694E+00  7.25696E+00  7.39362E+00  7.56482E+00  7.75085E+00  7.93760E+00  8.11831E+00  8.28870E+00  8.44564E+00  8.58661E+00
   8.70958E+00  8.81288E+00  8.89521E+00  8.95562E+00  8.99353E+00  9.00871E+00  9.00128E+00  8.97170E+00  8.92080E+00  8.84967E+00
   8.75975E+00  8.65267E+00  8.53031E+00  8.39471E+00  8.24804E+00  8.09255E+00  7.93054E+00  7.76432E+00  7.59614E+00  7.42822E+00
   7.26268E+00  7.10150E+00  6.94658E+00  6.79964E+00  6.66228E+00  6.53591E+00  6.42182E+00  6.32112E+00  6.23477E+00  6.16354E+00
   6.10807E+00  6.06878E+00  6.04593E+00  6.03956E+00  6.04951E+00  6.07537E+00  6.11647E+00  6.17188E+00  6.24040E+00  6.32050E+00
   6.41038E+00  6.50793E+00  6.61078E+00  6.71632E+00  6.82174E+00  6.92409E+00  7.02034E+00  7.10748E+00  7.18260E+00  7.24296E+00
   7.28610E+00  7.30991E+00  7.31272E+00  7.29335E+00  7.25113E+00  7.18595E+00  7.09824E+00  6.98895E+00  6.85950E+00  6.71173E+00
   6.54783E+00  6.37020E+00  6.18146E+00  5.98425E+00  5.78123E+00  5.57497E+00  5.36788E+00  5.16214E+00  4.95972E+00  4.76230E+00
   4.57126E+00  4.38773E+00  4.21255E+00  4.04631E+00  3.88937E+00  3.74189E+00  3.60386E+00  3.47512E+00  3.35543E+00  3.24443E+00
   3.14171E+00  3.04682E+00  2.95929E+00  2.87865E+00  2.80443E+00  2.73614E+00  2.67336E+00  2.61564E+00  2.56261E+00  2.51388E+00
   2.46912E+00  2.42799E+00  2.39022E+00  2.35553E+00  2.32367E+00  2.29443E+00  2.26760E+00  2.24299E+00  2.22044E+00  2.19978E+00
   2.18088E+00  2.16362E+00  2.14787E+00  2.13352E+00  2.12049E+00  2.10868E+00  2.09801E+00  2.08841E+00  2.07980E+00  2.07213E+00
   2.06533E+00  2.05935E+00  2.05415E+00  2.04966E+00  2.04587E+00  2.04272E+00  2.04018E+00  2.03821E+00  2.03679E+00  2.03588E+00
   2.03547E+00  2.03551E+00  2.03599E+00  2.03689E+00  2.03819E+00  2.03986E+00  2.04190E+00  2.04427E+00  2.04698E+00  2.04999E+00
   2.05330E+00  2.05690E+00  2.06076E+00  2.06489E+00  2.06927E+00  2.07389E+00  2.07873E+00  2.08380E+00  2.08908E+00  2.09456E+00
   2.10024E+00  2.10610E+00  2.11215E+00  2.11838E+00  2.12477E+00  2.13133E+00  2.13805E+00  2.14493E+00
 NY background values follow
    -9.045E-01   -9.076E-01   -9.107E-01   -9.138E-01   -9.169E-01   -9.200E-01   -9.231E-01   -9.262E-01   -9.293E-01   -9.324E-01
    -9.355E-01   -9.386E-01   -9.417E-01   -9.448E-01   -9.479E-01   -9.510E-01   -9.541E-01   -9.572E-01   -9.603E-01   -9.634E-01
    -9.664E-01   -9.695E-01   -9.726E-01   -9.757E-01   -9.788E-01   -9.819E-01   -9.850E-01   -9.881E-01   -9.912E-01   -9.943E-01
    -9.973E-01   -1.000E+00   -1.003E+00   -1.007E+00   -1.010E+00   -1.013E+00   -1.016E+00   -1.019E+00   -1.022E+00   -1.025E+00
    -1.028E+00   -1.031E+00   -1.034E+00   -1.037E+00   -1.040E+00   -1.043E+00   -1.046E+00   -1.049E+00   -1.052E+00   -1.055E+00
    -1.058E+00   -1.061E+00   -1.064E+00   -1.067E+00   -1.070E+00   -1.073E+00   -1.076E+00   -1.079E+00   -1.082E+00   -1.085E+00
    -1.088E+00   -1.091E+00   -1.094E+00   -1.097E+00   -1.100E+00   -1.103E+00   -1.106E+00   -1.109E+00   -1.112E+00   -1.114E+00
    -1.117E+00   -1.120E+00   -1.123E+00   -1.126E+00   -1.128E+00   -1.131E+00   -1.134E+00   -1.137E+00   -1.139E+00   -1.142E+00
    -1.145E+00   -1.147E+00   -1.150E+00   -1.153E+00   -1.155E+00   -1.158E+00   -1.160E+00   -1.163E+00   -1.166E+00   -1.168E+00
    -1.171E+00   -1.173E+00   -1.175E+00   -1.178E+00   -1.180E+00   -1.183E+00   -1.185E+00   -1.187E+00   -1.190E+00   -1.192E+00
    -1.194E+00   -1.196E+00   -1.198E+00   -1.201E+00   -1.203E+00   -1.205E+00   -1.207E+00   -1.209E+00   -1.211E+00   -1.213E+00
    -1.215E+00   -1.217E+00   -1.219E+00   -1.220E+00   -1.222E+00   -1.224E+00   -1.226E+00   -1.227E+00   -1.229E+00   -1.231E+00
    -1.232E+00   -1.234E+00   -1.235E+00   -1.237E+00   -1.238E+00   -1.240E+00   -1.241E+00   -1.242E+00   -1.243E+00   -1.245E+00
    -1.246E+00   -1.247E+00   -1.248E+00   -1.249E+00   -1.250E+00   -1.251E+00   -1.252E+00   -1.253E+00   -1.253E+00   -1.254E+00
    -1.255E+00   -1.255E+00   -1.256E+00   -1.257E+00   -1.257E+00   -1.258E+00   -1.258E+00   -1.258E+00   -1.259E+00   -1.259E+00
    -1.259E+00   -1.259E+00   -1.259E+00   -1.259E+00   -1.259E+00   -1.259E+00   -1.259E+00   -1.259E+00   -1.258E+00   -1.258E+00
    -1.258E+00   -1.257E+00   -1.257E+00   -1.256E+00   -1.255E+00   -1.255E+00   -1.254E+00   -1.253E+00   -1.252E+00   -1.251E+00
    -1.250E+00   -1.249E+00   -1.248E+00   -1.247E+00   -1.245E+00   -1.244E+00   -1.243E+00   -1.241E+00   -1.239E+00   -1.238E+00
    -1.236E+00   -1.234E+00   -1.232E+00   -1.231E+00   -1.229E+00   -1.226E+00   -1.224E+00   -1.222E+00   -1.220E+00   -1.217E+00
    -1.215E+00   -1.213E+00   -1.210E+00   -1.207E+00   -1.205E+00   -1.202E+00   -1.199E+00   -1.196E+00   -1.193E+00   -1.190E+00
    -1.187E+00   -1.184E+00   -1.180E+00   -1.177E+00   -1.174E+00   -1.170E+00   -1.166E+00   -1.163E+00   -1.159E+00   -1.155E+00
    -1.151E+00   -1.147E+00   -1.143E+00   -1.139E+00   -1.135E+00   -1.131E+00   -1.127E+00   -1.122E+00   -1.118E+00   -1.113E+00
    -1.109E+00   -1.104E+00   -1.099E+00   -1.094E+00   -1.089E+00   -1.084E+00   -1.079E+00   -1.074E+00   -1.069E+00   -1.064E+00
    -1.059E+00   -1.053E+00   -1.048E+00   -1.042E+00   -1.036E+00   -1.031E+00   -1.025E+00   -1.019E+00   -1.013E+00   -1.007E+00
    -1.001E+00   -9.950E-01   -9.888E-01   -9.825E-01   -9.761E-01   -9.697E-01   -9.632E-01   -9.566E-01   -9.500E-01   -9.433E-01
    -9.365E-01   -9.297E-01   -9.228E-01   -9.158E-01   -9.088E-01   -9.016E-01   -8.945E-01   -8.872E-01   -8.799E-01   -8.725E-01
    -8.650E-01   -8.575E-01   -8.499E-01   -8.422E-01   -8.345E-01   -8.267E-01   -8.189E-01   -8.109E-01   -8.029E-01   -7.949E-01
    -7.867E-01   -7.785E-01   -7.703E-01   -7.619E-01   -7.536E-01   -7.451E-01   -7.366E-01   -7.280E-01   -7.194E-01   -7.107E-01
    -7.019E-01   -6.931E-01   -6.842E-01   -6.752E-01   -6.662E-01   -6.572E-01   -6.481E-01   -6.389E-01   -6.297E-01   -6.204E-01
    -6.111E-01   -6.017E-01   -5.922E-01   -5.827E-01   -5.732E-01   -5.636E-01   -5.540E-01   -5.443E-01   -5.345E-01   -5.247E-01
    -5.149E-01   -5.050E-01   -4.951E-01   -4.851E-01   -4.751E-01   -4.651E-01   -4.550E-01   -4.448E-01   -4.346E-01   -4.244E-01
    -4.141E-01   -4.038E-01   -3.935E-01   -3.831E-01   -3.727E-01   -3.622E-01   -3.517E-01   -3.412E-01   -3.306E-01   -3.200E-01
    -3.094E-01   -2.987E-01   -2.880E-01   -2.773E-01   -2.665E-01   -2.557E-01   -2.449E-01   -2.340E-01   -2.231E-01   -2.122E-01
    -2.012E-01   -1.902E-01   -1.792E-01   -1.681E-01   -1.571E-01   -1.459E-01   -1.348E-01   -1.236E-01   -1.124E-01   -1.012E-01
    -8.997E-02   -7.869E-02   -6.739E-02   -5.606E-02   -4.470E-02   -3.332E-02   -2.191E-02   -1.048E-02    9.812E-04    1.246E-02
     2.397E-02    3.550E-02    4.705E-02    5.862E-02    7.022E-02    8.184E-02    9.348E-02    1.051E-01    1.168E-01    1.285E-01
     1.403E-01    1.520E-01    1.638E-01    1.755E-01    1.873E-01    1.992E-01    2.110E-01    2.229E-01    2.347E-01    2.466E-01
     2.585E-01    2.705E-01    2.824E-01    2.944E-01    3.063E-01    3.183E-01    3.303E-01    3.424E-01    3.544E-01    3.664E-01
     3.785E-01    3.906E-01    4.027E-01    4.148E-01    4.269E-01    4.390E-01    4.512E-01    4.633E-01    4.755E-01    4.877E-01
     4.998E-01    5.120E-01    5.243E-01    5.365E-01    5.487E-01    5.609E-01    5.732E-01    5.854E-01    5.977E-01    6.100E-01
     6.222E-01    6.345E-01    6.468E-01    6.591E-01    6.714E-01    6.837E-01    6.961E-01    7.084E-01    7.207E-01    7.331E-01
     7.454E-01    7.577E-01    7.701E-01    7.824E-01    7.948E-01    8.072E-01    8.195E-01    8.319E-01    8.443E-01    8.566E-01
     8.690E-01    8.814E-01    8.938E-01    9.062E-01    9.186E-01    9.309E-01    9.433E-01    9.557E-01    9.681E-01    9.805E-01
     9.929E-01    1.005E+00    1.018E+00    1.030E+00    1.042E+00    1.055E+00    1.067E+00    1.080E+00    1.092E+00    1.104E+00
     1.117E+00    1.129E+00    1.142E+00    1.154E+00    1.166E+00    1.179E+00    1.191E+00    1.203E+00    1.216E+00    1.228E+00
     1.241E+00    1.253E+00    1.265E+00    1.278E+00    1.290E+00    1.302E+00    1.315E+00    1.327E+00    1.339E+00    1.352E+00
     1.364E+00    1.376E+00    1.389E+00    1.401E+00    1.413E+00    1.425E+00    1.438E+00    1.450E+00    1.462E+00    1.475E+00
     1.487E+00    1.499E+00    1.511E+00    1.524E+00    1.536E+00    1.548E+00    1.561E+00    1.573E+00    1.585E+00    1.597E+00
     1.610E+00    1.622E+00    1.634E+00    1.646E+00    1.659E+00    1.671E+00    1.683E+00    1.696E+00    1.708E+00    1.720E+00
     1.732E+00    1.745E+00    1.757E+00    1.769E+00    1.781E+00    1.794E+00    1.806E+00    1.818E+00
 Ala      Conc. = 5.13E+01
