 LCModel (Version 6.3-1L) Copyright: S.W. Provencher.          Ref.: Magn. Reson. Med. 30:672-679 (1993).                
 Slice#1 Row#9 Col#13  K_02_press_1_raw_act
 36 lines in following concentration table = NCONC+1
    Conc.  %SD /Cr+PCr  Metabolite                                         
  117.878  48%   0.000 Ala                                                 
   32.838 114%   0.000 Asp                                                 
    0.000 999%   0.000 Cr                                                  
    0.000 999%   0.000 PCr                                                 
   23.021  99%   0.000 GABA                                                
   28.457  80%   0.000 Glc                                                 
   60.916 180%   0.000 Gln                                                 
  342.961  36%   0.000 Glu                                                 
    0.000 999%   0.000 GPC                                                 
    0.000 999%   0.000 PCh                                                 
   92.203  36%   0.000 GSH                                                 
  160.469  61%   0.000 Ins                                                 
  110.290  56%   0.000 Lac                                                 
  724.197   5%   0.000 NAA                                                 
    0.000 999%   0.000 NAAG                                                
    4.447 148%   0.000 Scyllo                                              
   24.671 146%   0.000 Tau                                                 
    0.000 999%   0.000 -CrCH2                                              
    0.000 999%   0.000 GPC+PCh                                             
  724.197   5%   0.000 NAA+NAAG                                            
    0.000 999%   0.000 Cr+PCr                                              
  403.877  43%   0.000 Glu+Gln                                             
  257.274 119%   0.000 Lip13a                                              
    0.000 999%   0.000 Lip13b                                              
   66.960 140%   0.000 Lip09                                               
  963.193  13%   0.000 MM09                                                
   44.831 123%   0.000 Lip20                                               
  771.835  24%   0.000 MM20                                                
  299.719  39%   0.000 MM12                                                
 1.93E+03  15%   0.000 MM14                                                
  981.581  18%   0.000 MM17                                                
  257.274 119%   0.000 Lip13a+Lip13b                                       
 2.49E+03   8%   0.000 MM14+Lip13a+Lip13b+MM12                             
 1.03E+03   9%   0.000 MM09+Lip09                                          
  816.666  21%   0.000 MM20+Lip20                                          
   6 lines in following misc. output table
  FWHM = 0.054 ppm    S/N =   8                                            
  Data shift =-0.023 ppm                                                   
  Ph: -23 deg     -16.2 deg/ppm                                            
  alphaB,S = 8.5E+01,   1.0E+02                                            
   14 spline knots.   Ns = 7(1)                                            
   2 inflections.     1 extrema                                            
  498 points on ppm-axis = NY
      4.000000     3.992357     3.984714     3.977070     3.969427     3.961784     3.954141     3.946497     3.938854     3.931211
      3.923568     3.915925     3.908281     3.900638     3.892995     3.885352     3.877708     3.870065     3.862422     3.854779
      3.847136     3.839492     3.831849     3.824206     3.816563     3.808919     3.801276     3.793633     3.785990     3.778347
      3.770703     3.763060     3.755417     3.747774     3.740130     3.732487     3.724844     3.717201     3.709558     3.701914
      3.694271     3.686628     3.678985     3.671341     3.663698     3.656055     3.648412     3.640769     3.633125     3.625482
      3.617839     3.610196     3.602552     3.594909     3.587266     3.579623     3.571980     3.564336     3.556693     3.549050
      3.541407     3.533763     3.526120     3.518477     3.510834     3.503191     3.495547     3.487904     3.480261     3.472618
      3.464974     3.457331     3.449688     3.442045     3.434402     3.426758     3.419115     3.411472     3.403829     3.396185
      3.388542     3.380899     3.373256     3.365613     3.357969     3.350326     3.342683     3.335040     3.327396     3.319753
      3.312110     3.304467     3.296824     3.289180     3.281537     3.273894     3.266251     3.258607     3.250964     3.243321
      3.235678     3.228034     3.220391     3.212748     3.205105     3.197462     3.189818     3.182175     3.174532     3.166889
      3.159245     3.151602     3.143959     3.136316     3.128673     3.121029     3.113386     3.105743     3.098100     3.090456
      3.082813     3.075170     3.067527     3.059884     3.052240     3.044597     3.036954     3.029311     3.021667     3.014024
      3.006381     2.998738     2.991095     2.983451     2.975808     2.968165     2.960522     2.952878     2.945235     2.937592
      2.929949     2.922306     2.914662     2.907019     2.899376     2.891733     2.884089     2.876446     2.868803     2.861160
      2.853517     2.845873     2.838230     2.830587     2.822944     2.815300     2.807657     2.800014     2.792371     2.784728
      2.777084     2.769441     2.761798     2.754155     2.746511     2.738868     2.731225     2.723582     2.715939     2.708295
      2.700652     2.693009     2.685366     2.677722     2.670079     2.662436     2.654793     2.647150     2.639506     2.631863
      2.624220     2.616577     2.608933     2.601290     2.593647     2.586004     2.578361     2.570717     2.563074     2.555431
      2.547788     2.540144     2.532501     2.524858     2.517215     2.509572     2.501928     2.494285     2.486642     2.478999
      2.471355     2.463712     2.456069     2.448426     2.440783     2.433139     2.425496     2.417853     2.410210     2.402566
      2.394923     2.387280     2.379637     2.371994     2.364350     2.356707     2.349064     2.341421     2.333777     2.326134
      2.318491     2.310848     2.303205     2.295561     2.287918     2.280275     2.272632     2.264988     2.257345     2.249702
      2.242059     2.234416     2.226772     2.219129     2.211486     2.203843     2.196199     2.188556     2.180913     2.173270
      2.165627     2.157983     2.150340     2.142697     2.135054     2.127410     2.119767     2.112124     2.104481     2.096838
      2.089194     2.081551     2.073908     2.066265     2.058621     2.050978     2.043335     2.035692     2.028049     2.020405
      2.012762     2.005119     1.997476     1.989833     1.982190     1.974546     1.966903     1.959260     1.951617     1.943974
      1.936331     1.928688     1.921045     1.913402     1.905759     1.898115     1.890472     1.882829     1.875186     1.867543
      1.859900     1.852257     1.844614     1.836971     1.829327     1.821684     1.814041     1.806398     1.798755     1.791112
      1.783469     1.775826     1.768183     1.760540     1.752896     1.745253     1.737610     1.729967     1.722324     1.714681
      1.707038     1.699395     1.691752     1.684108     1.676465     1.668822     1.661179     1.653536     1.645893     1.638250
      1.630607     1.622964     1.615321     1.607677     1.600034     1.592391     1.584748     1.577105     1.569462     1.561819
      1.554176     1.546533     1.538890     1.531246     1.523603     1.515960     1.508317     1.500674     1.493031     1.485388
      1.477745     1.470102     1.462458     1.454815     1.447172     1.439529     1.431886     1.424243     1.416600     1.408957
      1.401314     1.393671     1.386027     1.378384     1.370741     1.363098     1.355455     1.347812     1.340169     1.332526
      1.324883     1.317240     1.309596     1.301953     1.294310     1.286667     1.279024     1.271381     1.263738     1.256095
      1.248452     1.240808     1.233165     1.225522     1.217879     1.210236     1.202593     1.194950     1.187307     1.179664
      1.172021     1.164377     1.156734     1.149091     1.141448     1.133805     1.126162     1.118519     1.110876     1.103233
      1.095590     1.087946     1.080303     1.072660     1.065017     1.057374     1.049731     1.042088     1.034445     1.026802
      1.019158     1.011515     1.003872     0.996229     0.988586     0.980943     0.973300     0.965657     0.958014     0.950371
      0.942727     0.935084     0.927441     0.919798     0.912155     0.904512     0.896869     0.889226     0.881583     0.873940
      0.866296     0.858653     0.851010     0.843367     0.835724     0.828081     0.820438     0.812795     0.805152     0.797508
      0.789865     0.782222     0.774579     0.766936     0.759293     0.751650     0.744007     0.736364     0.728721     0.721077
      0.713434     0.705791     0.698148     0.690505     0.682862     0.675219     0.667576     0.659933     0.652290     0.644646
      0.637003     0.629360     0.621717     0.614074     0.606431     0.598788     0.591145     0.583502     0.575858     0.568215
      0.560572     0.552929     0.545286     0.537643     0.530000     0.522357     0.514714     0.507071     0.499427     0.491784
      0.484141     0.476498     0.468855     0.461212     0.453569     0.445925     0.438282     0.430639     0.422996     0.415353
      0.407710     0.400067     0.392424     0.384780     0.377137     0.369494     0.361851     0.354208     0.346565     0.338922
      0.331278     0.323635     0.315992     0.308349     0.300706     0.293063     0.285420     0.277777     0.270133     0.262490
      0.254847     0.247204     0.239561     0.231918     0.224275     0.216631     0.208988     0.201345
 NY phased data points follow
   8.83394E+00  6.18515E+00  5.23095E+00  4.79864E+00  8.28365E+00  6.44577E+00  4.88252E+00  7.54408E+00  5.80344E+00  7.59662E+00
   1.15537E+00  5.87349E+00  6.19094E+00  3.88249E+00  4.34985E+00  7.07968E+00  5.50791E+00  5.13160E+00  2.91033E+00  3.66069E+00
   4.92984E+00  6.20410E+00  6.74615E+00  6.87791E+00  3.88422E+00  5.43214E+00  8.57750E+00  8.86422E+00  7.10352E+00  7.30954E+00
   7.63217E+00  8.68685E+00  4.62126E+00  4.63651E+00  5.56473E+00  4.48499E+00  3.43571E+00  5.65228E+00  4.56121E+00  7.35224E+00
   5.18357E+00  6.48264E+00  5.31382E+00  5.38119E+00  2.96036E+00  4.82156E+00  5.85051E+00  4.88837E+00  4.87912E+00  3.86129E+00
   5.11594E+00  3.60971E+00  6.24392E+00  4.14416E+00  5.84124E+00  4.13864E+00  2.00290E+00  1.47090E+00  4.74025E+00  3.89052E+00
   3.95404E+00  6.25225E+00  5.30339E+00  4.11597E+00  5.35238E+00  5.18573E+00  4.04710E+00  5.00004E+00  4.47907E+00  3.99822E+00
   4.04422E+00  4.44781E+00  5.24009E+00  6.32509E+00  3.98297E+00  3.64491E+00  4.78680E+00  5.19078E+00  2.91753E+00  6.12957E+00
   4.36930E+00  4.80358E+00  3.18959E+00  1.36490E+00  5.75600E+00  4.96262E+00  2.05826E+00  3.11974E+00  2.99451E+00  5.50276E+00
   3.26146E+00  3.99796E+00  3.79386E+00  3.90681E+00  1.69517E+00  2.38994E+00  2.27999E+00  4.03975E+00  4.21935E+00  4.45937E+00
   4.10183E+00  2.08509E+00  9.36253E-01  1.75265E+00  1.75828E+00  3.01726E+00  5.13024E+00  6.98026E+00  5.21189E+00  5.74805E+00
   4.42437E+00  2.72807E+00  2.98674E+00  7.08450E-01  4.01434E+00  4.93465E+00  2.73365E+00  6.42728E+00  4.64526E+00  4.45060E+00
   2.82220E+00  3.14107E+00  5.25324E+00  2.86768E+00  2.11756E+00  2.83915E+00  2.82914E+00  3.71161E+00  9.17365E-01  1.44885E+00
   5.31952E+00  4.55595E+00  3.13010E+00  5.05770E+00  4.10141E+00  3.50473E+00  1.85156E+00  2.20325E+00  1.35174E+00  1.93784E+00
   4.00689E+00  2.25415E+00  2.53480E+00  2.13073E+00  3.83578E+00  4.46478E-01  6.39710E+00  4.48142E+00  2.15091E+00  5.36554E+00
   4.34533E+00  4.94424E+00  6.41684E+00  4.49688E+00  6.34470E+00  2.91972E+00  6.37760E+00  3.35701E+00  3.35863E+00  3.34469E+00
   3.58157E+00  4.57323E+00  4.20875E+00  4.58632E+00  4.81382E+00  3.05058E+00  4.34523E+00  1.67925E+00  2.05499E+00  4.75827E+00
   3.63220E+00  2.13024E+00  6.43908E+00  4.90053E+00  3.76759E+00  3.34579E+00  3.38817E+00  2.00261E+00  3.70879E+00  3.12153E+00
   3.84828E+00  3.28864E+00  3.74847E+00  2.56929E+00  5.13744E+00  9.51999E-01 -5.79023E-02  3.51577E+00  2.93545E+00  1.30350E+00
   2.54058E+00  4.06350E+00  2.49725E+00  4.88119E+00  1.93440E+00  1.22584E+00  4.34059E+00  2.88005E+00  3.33647E+00  1.64319E+00
   7.43613E+00  4.50687E+00  2.62047E+00  2.72942E+00  3.16326E+00  4.82133E+00  1.90213E+00  1.92715E+00  3.67489E+00  4.35584E+00
   2.56818E+00  2.63934E+00  2.72244E+00  4.52594E+00  4.23635E+00  2.99985E+00  3.84045E+00  5.46206E+00  4.27012E+00  3.81468E+00
   2.64726E+00  2.84183E+00  6.53642E-01  1.07503E+00  3.30919E+00 -3.43563E-02  3.49411E+00  3.28485E+00  3.00862E+00  4.51315E+00
   5.99465E-01  4.22582E+00  4.04092E+00  5.53478E+00  4.05705E+00  7.70837E+00  1.44237E+00  6.44667E+00  7.57486E+00  6.86193E+00
   2.71201E+00  5.33093E+00  8.69186E+00  5.57832E+00  5.09710E+00  4.46699E+00  4.56287E+00  6.08760E+00  7.70485E+00  8.29105E+00
   3.48354E+00  5.28006E+00  7.21011E+00  9.78812E+00  1.05597E+01  1.42595E+01  1.80343E+01  1.93946E+01  2.40508E+01  3.00180E+01
   3.12921E+01  2.81968E+01  2.13322E+01  1.81354E+01  1.67316E+01  1.16827E+01  6.83760E+00  5.64642E+00  6.21473E+00  3.86551E+00
   3.53011E+00  3.33046E+00  5.35998E+00  5.27711E+00  3.97245E+00  6.25509E+00  4.05894E+00  5.31223E+00  5.11558E+00  7.16799E+00
   6.71659E+00  4.20500E+00  4.23918E+00  2.90793E+00  5.64042E+00  6.25718E+00  5.07139E+00  6.15168E+00  6.85317E+00  6.27916E+00
   3.02598E+00  6.67792E+00  7.17812E+00  7.29536E+00  5.30851E+00  6.08864E+00  4.23256E+00  6.06278E+00  4.28169E+00  5.61607E+00
   5.02825E+00  4.84290E+00  8.78458E+00  7.40709E+00  6.44036E+00  6.60285E+00  5.94833E+00  1.04235E+01  8.37266E+00  6.24619E+00
   8.79701E+00  8.55231E+00  9.02787E+00  7.37941E+00  7.73150E+00  5.90132E+00  9.56918E+00  8.04554E+00  9.88972E+00  8.00350E+00
   1.05637E+01  7.12895E+00  9.43256E+00  8.99304E+00  9.39700E+00  8.84392E+00  1.17475E+01  1.18474E+01  1.13938E+01  1.28896E+01
   6.65030E+00  8.69095E+00  1.09715E+01  1.27208E+01  1.23108E+01  1.00007E+01  1.00952E+01  1.25144E+01  1.16045E+01  1.37240E+01
   1.26089E+01  1.36196E+01  1.43095E+01  1.42822E+01  1.29010E+01  1.34216E+01  1.30621E+01  1.44913E+01  8.83597E+00  9.25066E+00
   7.98494E+00  1.06382E+01  7.64811E+00  3.75530E+00  4.31264E+00  7.90923E+00  6.55135E+00  5.01618E+00  5.45690E+00  4.02096E+00
   6.40639E+00  4.00765E+00  4.55871E+00  7.12706E+00  5.44283E+00  7.53896E+00  4.46006E+00  4.13120E+00  4.74315E+00  4.14236E+00
   6.27040E+00  5.02955E+00  4.34458E+00  5.20146E+00  4.70368E+00  6.06688E+00  5.20876E+00  5.81569E+00  3.47626E+00  4.92942E+00
   5.42417E+00  3.64414E+00  4.04138E+00  5.39580E+00  3.20283E+00  1.70658E+00  4.61753E+00  4.74180E+00  6.12858E+00  4.90600E+00
   5.05588E+00  6.22792E+00  5.11288E+00  6.76374E+00  9.65199E+00  6.72595E+00  9.94556E+00  6.43937E+00  6.86642E+00  9.93938E+00
   1.14002E+01  9.35198E+00  9.69342E+00  7.15235E+00  8.28220E+00  8.80694E+00  7.32935E+00  1.09054E+01  8.70307E+00  7.01932E+00
   7.21573E+00  7.57720E+00  8.32568E+00  6.53597E+00  6.22315E+00  6.52117E+00  5.41361E+00  1.82487E+00  6.99117E+00  3.39126E+00
   3.46843E+00  1.19867E+00  2.62153E+00  2.42489E+00  4.37028E+00  9.81488E-01  4.33321E-01  3.61832E+00  4.75462E+00  3.57842E+00
   2.68985E+00  1.72588E+00  2.86233E+00  7.54625E-01  2.95501E-02  4.80639E+00  2.90831E-01  2.57983E-02  8.44962E-01  1.41519E+00
   2.10131E-01  9.61384E-01  5.02293E-01  1.37002E+00  5.82310E-01  1.55984E-01  3.66578E-01  3.44857E+00 -9.80313E-01  1.65188E+00
   2.39625E-01  2.62751E+00 -1.90948E+00  8.71216E-01 -3.43463E+00  4.51498E-01  1.29224E+00 -2.38975E-01  1.58607E+00  1.07641E+00
   1.17675E+00  1.88981E+00  3.23496E-01  3.69220E-01  8.33515E-01  6.37929E-01  6.37981E-01  7.78481E-01  9.78310E-01 -2.03414E+00
  -1.05490E+00  6.34825E-02 -2.46786E+00 -4.76192E-01  1.29158E+00  2.19802E+00 -1.10578E+00  2.08863E+00 -7.38844E-01  2.85772E-01
   1.30497E-03 -1.11683E+00  1.13021E+00 -5.36402E-01  3.27460E+00 -6.56285E-02  5.82307E-01 -5.30461E-01 -6.72302E-01  9.07915E-02
   2.28379E+00  2.07898E+00  1.39162E+00 -2.20181E-01  2.03418E+00 -1.27119E+00  2.12293E+00  3.57163E+00
 NY points of the fit to the data follow
   4.99082E+00  4.92587E+00  4.88706E+00  4.86491E+00  4.85271E+00  4.84415E+00  4.83078E+00  4.81166E+00  4.79460E+00  4.78795E+00
   4.79107E+00  4.79448E+00  4.79105E+00  4.78437E+00  4.78277E+00  4.79236E+00  4.81344E+00  4.84821E+00  4.91590E+00  5.02778E+00
   5.16318E+00  5.27818E+00  5.37296E+00  5.50245E+00  5.65168E+00  5.79763E+00  5.94827E+00  6.14949E+00  6.42441E+00  6.69948E+00
   6.86138E+00  6.85112E+00  6.69420E+00  6.44033E+00  6.08933E+00  5.64937E+00  5.19939E+00  4.82969E+00  4.58669E+00  4.47650E+00
   4.48009E+00  4.58764E+00  4.76802E+00  4.98002E+00  5.19206E+00  5.37741E+00  5.50750E+00  5.53947E+00  5.43971E+00  5.22676E+00
   4.96320E+00  4.71341E+00  4.51656E+00  4.38791E+00  4.33334E+00  4.35208E+00  4.42569E+00  4.52667E+00  4.62542E+00  4.69601E+00
   4.72067E+00  4.69249E+00  4.62488E+00  4.54207E+00  4.46695E+00  4.41950E+00  4.40515E+00  4.41909E+00  4.45702E+00  4.51267E+00
   4.57406E+00  4.62828E+00  4.66264E+00  4.67056E+00  4.65293E+00  4.61431E+00  4.55747E+00  4.48691E+00  4.41622E+00  4.36239E+00
   4.32483E+00  4.29383E+00  4.26007E+00  4.21934E+00  4.16907E+00  4.10398E+00  4.01955E+00  3.92629E+00  3.84881E+00  3.80915E+00
   3.80842E+00  3.83082E+00  3.86326E+00  3.89621E+00  3.92342E+00  3.93904E+00  3.93404E+00  3.90601E+00  3.86280E+00  3.81622E+00
   3.77526E+00  3.74659E+00  3.73274E+00  3.73575E+00  3.75579E+00  3.78939E+00  3.82892E+00  3.86699E+00  3.90129E+00  3.93119E+00
   3.95727E+00  3.98029E+00  3.99952E+00  4.01290E+00  4.02171E+00  4.02731E+00  4.02848E+00  4.02593E+00  4.02248E+00  4.02283E+00
   4.03315E+00  4.05679E+00  4.09295E+00  4.14045E+00  4.19800E+00  4.26404E+00  4.34087E+00  4.42480E+00  4.49738E+00  4.54534E+00
   4.55950E+00  4.52941E+00  4.44931E+00  4.31623E+00  4.14835E+00  3.98879E+00  3.88194E+00  3.85429E+00  3.90099E+00  3.99740E+00
   4.10818E+00  4.19626E+00  4.24028E+00  4.23576E+00  4.18808E+00  4.10990E+00  4.01333E+00  3.91037E+00  3.81413E+00  3.73199E+00
   3.66495E+00  3.61166E+00  3.56940E+00  3.52680E+00  3.46263E+00  3.37987E+00  3.28464E+00  3.18576E+00  3.09339E+00  3.00218E+00
   2.93708E+00  2.93131E+00  2.98542E+00  3.05382E+00  3.07402E+00  3.01999E+00  2.91218E+00  2.78206E+00  2.64070E+00  2.47330E+00
   2.29445E+00  2.14448E+00  2.03402E+00  1.95085E+00  1.88094E+00  1.84788E+00  1.88039E+00  1.96169E+00  2.03383E+00  2.05229E+00
   2.02893E+00  2.03026E+00  2.08096E+00  2.16227E+00  2.26682E+00  2.42232E+00  2.67041E+00  3.01072E+00  3.38565E+00  3.72197E+00
   3.96282E+00  4.08250E+00  4.09731E+00  4.02963E+00  3.90764E+00  3.76157E+00  3.63034E+00  3.56448E+00  3.59360E+00  3.72321E+00
   3.92091E+00  4.13599E+00  4.32344E+00  4.41580E+00  4.36571E+00  4.16067E+00  3.82295E+00  3.42733E+00  3.05948E+00  2.81857E+00
   2.76705E+00  2.90695E+00  3.22610E+00  3.67389E+00  4.14199E+00  4.46325E+00  4.48360E+00  4.18941E+00  3.70096E+00  3.14926E+00
   2.64724E+00  2.29501E+00  2.19767E+00  2.41812E+00  2.87961E+00  3.42158E+00  3.90977E+00  4.28286E+00  4.53103E+00  4.65278E+00
   4.68664E+00  4.70295E+00  4.75468E+00  4.85588E+00  4.98355E+00  5.10576E+00  5.18507E+00  5.19570E+00  5.13465E+00  5.03311E+00
   4.93911E+00  4.90295E+00  4.95809E+00  5.11320E+00  5.34870E+00  5.61244E+00  5.85165E+00  6.03769E+00  6.16955E+00  6.26267E+00
   6.34998E+00  6.49962E+00  6.93764E+00  8.32073E+00  1.07138E+01  1.37594E+01  1.72630E+01  2.11029E+01  2.49492E+01  2.78893E+01
   2.87560E+01  2.70988E+01  2.36311E+01  1.95628E+01  1.56103E+01  1.19516E+01  8.83361E+00  6.57820E+00  5.22599E+00  4.61829E+00
   4.38535E+00  4.26941E+00  4.21574E+00  4.20108E+00  4.20336E+00  4.20426E+00  4.19640E+00  4.17830E+00  4.15245E+00  4.12413E+00
   4.10196E+00  4.09513E+00  4.11100E+00  4.15307E+00  4.22019E+00  4.30931E+00  4.41734E+00  4.54099E+00  4.67815E+00  4.82778E+00
   4.98866E+00  5.15992E+00  5.34075E+00  5.53005E+00  5.72608E+00  5.92625E+00  6.12741E+00  6.32613E+00  6.51887E+00  6.70217E+00
   6.87265E+00  7.02726E+00  7.16351E+00  7.27956E+00  7.37436E+00  7.44781E+00  7.50079E+00  7.53514E+00  7.55365E+00  7.56002E+00
   7.55874E+00  7.55496E+00  7.55426E+00  7.56259E+00  7.58613E+00  7.63121E+00  7.70427E+00  7.81197E+00  7.96193E+00  8.16521E+00
   8.44365E+00  8.80879E+00  9.20769E+00  9.60181E+00  9.96837E+00  1.02780E+01  1.04787E+01  1.05062E+01  1.03588E+01  1.01735E+01
   1.00925E+01  1.01781E+01  1.04261E+01  1.08306E+01  1.13976E+01  1.20674E+01  1.26968E+01  1.31479E+01  1.33666E+01  1.34041E+01
   1.33349E+01  1.31939E+01  1.29615E+01  1.26498E+01  1.22759E+01  1.18384E+01  1.12864E+01  1.05555E+01  9.67260E+00  8.78115E+00
   8.01192E+00  7.43424E+00  7.05713E+00  6.88585E+00  6.91778E+00  7.07386E+00  7.21560E+00  7.23970E+00  7.12558E+00  6.92051E+00
   6.65853E+00  6.35571E+00  6.04138E+00  5.74790E+00  5.49515E+00  5.28746E+00  5.10826E+00  4.94711E+00  4.79930E+00  4.66254E+00
   4.53576E+00  4.41873E+00  4.31174E+00  4.21549E+00  4.13101E+00  4.05965E+00  4.00304E+00  3.96293E+00  3.94122E+00  3.93989E+00
   3.96098E+00  4.00659E+00  4.07875E+00  4.17936E+00  4.31003E+00  4.47197E+00  4.66597E+00  4.89214E+00  5.14979E+00  5.43726E+00
   5.75175E+00  6.08928E+00  6.44467E+00  6.81154E+00  7.18237E+00  7.54865E+00  7.90117E+00  8.23037E+00  8.52674E+00  8.78121E+00
   8.98556E+00  9.13282E+00  9.21769E+00  9.23679E+00  9.18884E+00  9.07473E+00  8.89739E+00  8.66166E+00  8.37400E+00  8.04220E+00
   7.67488E+00  7.28113E+00  6.86999E+00  6.45017E+00  6.02972E+00  5.61578E+00  5.21441E+00  4.83044E+00  4.46752E+00  4.12815E+00
   3.81380E+00  3.52505E+00  3.26170E+00  3.02290E+00  2.80739E+00  2.61358E+00  2.43973E+00  2.28403E+00  2.14464E+00  2.01975E+00
   1.90768E+00  1.80692E+00  1.71607E+00  1.63390E+00  1.55930E+00  1.49128E+00  1.42901E+00  1.37176E+00  1.31892E+00  1.26997E+00
   1.22442E+00  1.18185E+00  1.14193E+00  1.10438E+00  1.06896E+00  1.03543E+00  1.00359E+00  9.73257E-01  9.44300E-01  9.16605E-01
   8.90061E-01  8.64553E-01  8.39978E-01  8.16259E-01  7.93341E-01  7.71173E-01  7.49691E-01  7.28826E-01  7.08525E-01  6.88755E-01
   6.69493E-01  6.50709E-01  6.32359E-01  6.14400E-01  5.96805E-01  5.79564E-01  5.62668E-01  5.46092E-01  5.29802E-01  5.13771E-01
   4.97990E-01  4.82461E-01  4.67176E-01  4.52111E-01  4.37240E-01  4.22551E-01  4.08044E-01  3.93724E-01  3.79578E-01  3.65585E-01
   3.51725E-01  3.37997E-01  3.24408E-01  3.10959E-01  2.97635E-01  2.84416E-01  2.71292E-01  2.58269E-01  2.45355E-01  2.32545E-01
   2.19822E-01  2.07170E-01  1.94587E-01  1.82084E-01  1.69665E-01  1.57319E-01  1.45030E-01  1.32787E-01
 NY background values follow
     4.333E+00    4.325E+00    4.316E+00    4.307E+00    4.298E+00    4.290E+00    4.281E+00    4.272E+00    4.264E+00    4.255E+00
     4.246E+00    4.237E+00    4.229E+00    4.220E+00    4.211E+00    4.202E+00    4.194E+00    4.185E+00    4.176E+00    4.168E+00
     4.159E+00    4.150E+00    4.141E+00    4.132E+00    4.124E+00    4.115E+00    4.106E+00    4.097E+00    4.089E+00    4.080E+00
     4.071E+00    4.062E+00    4.054E+00    4.045E+00    4.036E+00    4.027E+00    4.018E+00    4.010E+00    4.001E+00    3.992E+00
     3.983E+00    3.974E+00    3.966E+00    3.957E+00    3.948E+00    3.939E+00    3.930E+00    3.922E+00    3.913E+00    3.904E+00
     3.895E+00    3.886E+00    3.878E+00    3.869E+00    3.860E+00    3.851E+00    3.842E+00    3.833E+00    3.825E+00    3.816E+00
     3.807E+00    3.798E+00    3.789E+00    3.780E+00    3.771E+00    3.763E+00    3.754E+00    3.745E+00    3.736E+00    3.727E+00
     3.718E+00    3.709E+00    3.700E+00    3.692E+00    3.683E+00    3.674E+00    3.665E+00    3.656E+00    3.647E+00    3.638E+00
     3.629E+00    3.621E+00    3.612E+00    3.603E+00    3.594E+00    3.585E+00    3.576E+00    3.567E+00    3.558E+00    3.549E+00
     3.540E+00    3.532E+00    3.523E+00    3.514E+00    3.505E+00    3.496E+00    3.487E+00    3.478E+00    3.469E+00    3.460E+00
     3.451E+00    3.442E+00    3.433E+00    3.424E+00    3.415E+00    3.407E+00    3.398E+00    3.389E+00    3.380E+00    3.371E+00
     3.362E+00    3.353E+00    3.344E+00    3.335E+00    3.326E+00    3.317E+00    3.308E+00    3.299E+00    3.290E+00    3.281E+00
     3.272E+00    3.263E+00    3.254E+00    3.245E+00    3.236E+00    3.227E+00    3.218E+00    3.209E+00    3.200E+00    3.191E+00
     3.182E+00    3.173E+00    3.164E+00    3.155E+00    3.146E+00    3.137E+00    3.128E+00    3.119E+00    3.110E+00    3.101E+00
     3.092E+00    3.083E+00    3.074E+00    3.065E+00    3.056E+00    3.047E+00    3.038E+00    3.029E+00    3.020E+00    3.011E+00
     3.002E+00    2.993E+00    2.984E+00    2.975E+00    2.966E+00    2.957E+00    2.948E+00    2.939E+00    2.930E+00    2.921E+00
     2.912E+00    2.903E+00    2.894E+00    2.885E+00    2.876E+00    2.867E+00    2.858E+00    2.849E+00    2.839E+00    2.830E+00
     2.821E+00    2.812E+00    2.803E+00    2.794E+00    2.785E+00    2.776E+00    2.767E+00    2.758E+00    2.749E+00    2.740E+00
     2.731E+00    2.722E+00    2.713E+00    2.704E+00    2.694E+00    2.685E+00    2.676E+00    2.667E+00    2.658E+00    2.649E+00
     2.640E+00    2.631E+00    2.622E+00    2.613E+00    2.604E+00    2.594E+00    2.585E+00    2.576E+00    2.567E+00    2.558E+00
     2.549E+00    2.540E+00    2.531E+00    2.522E+00    2.513E+00    2.503E+00    2.494E+00    2.485E+00    2.476E+00    2.467E+00
     2.458E+00    2.449E+00    2.440E+00    2.431E+00    2.421E+00    2.412E+00    2.403E+00    2.394E+00    2.385E+00    2.376E+00
     2.367E+00    2.358E+00    2.349E+00    2.339E+00    2.330E+00    2.321E+00    2.312E+00    2.303E+00    2.294E+00    2.285E+00
     2.275E+00    2.266E+00    2.257E+00    2.248E+00    2.239E+00    2.230E+00    2.221E+00    2.211E+00    2.202E+00    2.193E+00
     2.184E+00    2.175E+00    2.166E+00    2.157E+00    2.147E+00    2.138E+00    2.129E+00    2.120E+00    2.111E+00    2.102E+00
     2.093E+00    2.083E+00    2.074E+00    2.065E+00    2.056E+00    2.047E+00    2.038E+00    2.028E+00    2.019E+00    2.010E+00
     2.001E+00    1.992E+00    1.983E+00    1.973E+00    1.964E+00    1.955E+00    1.946E+00    1.937E+00    1.928E+00    1.918E+00
     1.909E+00    1.900E+00    1.891E+00    1.882E+00    1.872E+00    1.863E+00    1.854E+00    1.845E+00    1.836E+00    1.827E+00
     1.817E+00    1.808E+00    1.799E+00    1.790E+00    1.781E+00    1.771E+00    1.762E+00    1.753E+00    1.744E+00    1.735E+00
     1.726E+00    1.716E+00    1.707E+00    1.698E+00    1.689E+00    1.680E+00    1.670E+00    1.661E+00    1.652E+00    1.643E+00
     1.634E+00    1.624E+00    1.615E+00    1.606E+00    1.597E+00    1.588E+00    1.578E+00    1.569E+00    1.560E+00    1.551E+00
     1.542E+00    1.532E+00    1.523E+00    1.514E+00    1.505E+00    1.496E+00    1.486E+00    1.477E+00    1.468E+00    1.459E+00
     1.450E+00    1.440E+00    1.431E+00    1.422E+00    1.413E+00    1.403E+00    1.394E+00    1.385E+00    1.376E+00    1.367E+00
     1.357E+00    1.348E+00    1.339E+00    1.330E+00    1.321E+00    1.311E+00    1.302E+00    1.293E+00    1.284E+00    1.274E+00
     1.265E+00    1.256E+00    1.247E+00    1.238E+00    1.228E+00    1.219E+00    1.210E+00    1.201E+00    1.192E+00    1.182E+00
     1.173E+00    1.164E+00    1.155E+00    1.145E+00    1.136E+00    1.127E+00    1.118E+00    1.109E+00    1.099E+00    1.090E+00
     1.081E+00    1.072E+00    1.062E+00    1.053E+00    1.044E+00    1.035E+00    1.026E+00    1.016E+00    1.007E+00    9.979E-01
     9.887E-01    9.794E-01    9.702E-01    9.610E-01    9.518E-01    9.425E-01    9.333E-01    9.241E-01    9.149E-01    9.056E-01
     8.964E-01    8.872E-01    8.780E-01    8.687E-01    8.595E-01    8.503E-01    8.411E-01    8.318E-01    8.226E-01    8.134E-01
     8.042E-01    7.949E-01    7.857E-01    7.765E-01    7.673E-01    7.580E-01    7.488E-01    7.396E-01    7.304E-01    7.211E-01
     7.119E-01    7.027E-01    6.935E-01    6.843E-01    6.750E-01    6.658E-01    6.566E-01    6.474E-01    6.381E-01    6.289E-01
     6.197E-01    6.105E-01    6.012E-01    5.920E-01    5.828E-01    5.736E-01    5.644E-01    5.551E-01    5.459E-01    5.367E-01
     5.275E-01    5.182E-01    5.090E-01    4.998E-01    4.906E-01    4.814E-01    4.721E-01    4.629E-01    4.537E-01    4.445E-01
     4.353E-01    4.260E-01    4.168E-01    4.076E-01    3.984E-01    3.892E-01    3.800E-01    3.707E-01    3.615E-01    3.523E-01
     3.431E-01    3.339E-01    3.247E-01    3.154E-01    3.062E-01    2.970E-01    2.878E-01    2.786E-01    2.694E-01    2.602E-01
     2.510E-01    2.417E-01    2.325E-01    2.233E-01    2.141E-01    2.049E-01    1.957E-01    1.865E-01    1.773E-01    1.681E-01
     1.589E-01    1.497E-01    1.405E-01    1.313E-01    1.220E-01    1.128E-01    1.036E-01    9.443E-02    8.523E-02    7.603E-02
     6.683E-02    5.763E-02    4.843E-02    3.923E-02    3.003E-02    2.083E-02    1.163E-02    2.435E-03   -6.762E-03   -1.596E-02
    -2.515E-02   -3.435E-02   -4.354E-02   -5.274E-02   -6.193E-02   -7.112E-02   -8.031E-02   -8.950E-02   -9.869E-02   -1.079E-01
    -1.171E-01   -1.263E-01   -1.354E-01   -1.446E-01   -1.538E-01   -1.630E-01   -1.722E-01   -1.814E-01
 Ala      Conc. = 1.18E+02
