 LCModel (Version 6.3-1L) Copyright: S.W. Provencher.          Ref.: Magn. Reson. Med. 30:672-679 (1993).                
 Slice#1 Row#13 Col#6  K_02_press_1_raw_act
 36 lines in following concentration table = NCONC+1
    Conc.  %SD /Cr+PCr  Metabolite                                         
  116.046  77%   0.212 Ala                                                 
    0.000 999%   0.000 Asp                                                 
    0.000 999%   0.000 Cr                                                  
  548.013   7%   1.000 PCr                                                 
    0.000 999%   0.000 GABA                                                
   81.107  90%   0.148 Glc                                                 
    0.000 999%   0.000 Gln                                                 
  423.760  48%   0.773 Glu                                                 
  155.734   9%   0.284 GPC                                                 
    0.000 999%   0.000 PCh                                                 
  209.504  26%   0.382 GSH                                                 
 1.31E+03  16%   2.390 Ins                                                 
  286.886  36%   0.524 Lac                                                 
 1.27E+03   4%   2.324 NAA                                                 
    0.000 999%   0.000 NAAG                                                
   71.494  24%   0.130 Scyllo                                              
  188.135  61%   0.343 Tau                                                 
  411.199  18%   0.750 -CrCH2                                              
  155.734   9%   0.284 GPC+PCh                                             
 1.27E+03   4%   2.324 NAA+NAAG                                            
  548.013   7%   1.000 Cr+PCr                                              
  423.760  48%   0.773 Glu+Gln                                             
  256.082 107%   0.467 Lip13a                                              
    0.000 999%   0.000 Lip13b                                              
   67.329 150%   0.123 Lip09                                               
  511.845  26%   0.934 MM09                                                
   44.156 142% 8.1E-02 Lip20                                               
  596.936  39%   1.089 MM20                                                
  165.866  52%   0.303 MM12                                                
  700.767  28%   1.279 MM14                                                
  218.362  66%   0.398 MM17                                                
  256.082 107%   0.467 Lip13a+Lip13b                                       
 1.12E+03  27%   2.049 MM14+Lip13a+Lip13b+MM12                             
  579.174  22%   1.057 MM09+Lip09                                          
  641.092  36%   1.170 MM20+Lip20                                          
   6 lines in following misc. output table
  FWHM = 0.069 ppm    S/N =   8                                            
  Data shift =-0.015 ppm                                                   
  Ph: -55 deg     -20.4 deg/ppm                                            
  alphaB,S = 8.5E-01,   9.5E+01                                            
   14 spline knots.   Ns = 8(1)                                            
  (12) 2 infls.   (13) 1 extrs.                                            
  498 points on ppm-axis = NY
      4.000000     3.992357     3.984714     3.977070     3.969427     3.961784     3.954141     3.946497     3.938854     3.931211
      3.923568     3.915925     3.908281     3.900638     3.892995     3.885352     3.877708     3.870065     3.862422     3.854779
      3.847136     3.839492     3.831849     3.824206     3.816563     3.808919     3.801276     3.793633     3.785990     3.778347
      3.770703     3.763060     3.755417     3.747774     3.740130     3.732487     3.724844     3.717201     3.709558     3.701914
      3.694271     3.686628     3.678985     3.671341     3.663698     3.656055     3.648412     3.640769     3.633125     3.625482
      3.617839     3.610196     3.602552     3.594909     3.587266     3.579623     3.571980     3.564336     3.556693     3.549050
      3.541407     3.533763     3.526120     3.518477     3.510834     3.503191     3.495547     3.487904     3.480261     3.472618
      3.464974     3.457331     3.449688     3.442045     3.434402     3.426758     3.419115     3.411472     3.403829     3.396185
      3.388542     3.380899     3.373256     3.365613     3.357969     3.350326     3.342683     3.335040     3.327396     3.319753
      3.312110     3.304467     3.296824     3.289180     3.281537     3.273894     3.266251     3.258607     3.250964     3.243321
      3.235678     3.228034     3.220391     3.212748     3.205105     3.197462     3.189818     3.182175     3.174532     3.166889
      3.159245     3.151602     3.143959     3.136316     3.128673     3.121029     3.113386     3.105743     3.098100     3.090456
      3.082813     3.075170     3.067527     3.059884     3.052240     3.044597     3.036954     3.029311     3.021667     3.014024
      3.006381     2.998738     2.991095     2.983451     2.975808     2.968165     2.960522     2.952878     2.945235     2.937592
      2.929949     2.922306     2.914662     2.907019     2.899376     2.891733     2.884089     2.876446     2.868803     2.861160
      2.853517     2.845873     2.838230     2.830587     2.822944     2.815300     2.807657     2.800014     2.792371     2.784728
      2.777084     2.769441     2.761798     2.754155     2.746511     2.738868     2.731225     2.723582     2.715939     2.708295
      2.700652     2.693009     2.685366     2.677722     2.670079     2.662436     2.654793     2.647150     2.639506     2.631863
      2.624220     2.616577     2.608933     2.601290     2.593647     2.586004     2.578361     2.570717     2.563074     2.555431
      2.547788     2.540144     2.532501     2.524858     2.517215     2.509572     2.501928     2.494285     2.486642     2.478999
      2.471355     2.463712     2.456069     2.448426     2.440783     2.433139     2.425496     2.417853     2.410210     2.402566
      2.394923     2.387280     2.379637     2.371994     2.364350     2.356707     2.349064     2.341421     2.333777     2.326134
      2.318491     2.310848     2.303205     2.295561     2.287918     2.280275     2.272632     2.264988     2.257345     2.249702
      2.242059     2.234416     2.226772     2.219129     2.211486     2.203843     2.196199     2.188556     2.180913     2.173270
      2.165627     2.157983     2.150340     2.142697     2.135054     2.127410     2.119767     2.112124     2.104481     2.096838
      2.089194     2.081551     2.073908     2.066265     2.058621     2.050978     2.043335     2.035692     2.028049     2.020405
      2.012762     2.005119     1.997476     1.989833     1.982190     1.974546     1.966903     1.959260     1.951617     1.943974
      1.936331     1.928688     1.921045     1.913402     1.905759     1.898115     1.890472     1.882829     1.875186     1.867543
      1.859900     1.852257     1.844614     1.836971     1.829327     1.821684     1.814041     1.806398     1.798755     1.791112
      1.783469     1.775826     1.768183     1.760540     1.752896     1.745253     1.737610     1.729967     1.722324     1.714681
      1.707038     1.699395     1.691752     1.684108     1.676465     1.668822     1.661179     1.653536     1.645893     1.638250
      1.630607     1.622964     1.615321     1.607677     1.600034     1.592391     1.584748     1.577105     1.569462     1.561819
      1.554176     1.546533     1.538890     1.531246     1.523603     1.515960     1.508317     1.500674     1.493031     1.485388
      1.477745     1.470102     1.462458     1.454815     1.447172     1.439529     1.431886     1.424243     1.416600     1.408957
      1.401314     1.393671     1.386027     1.378384     1.370741     1.363098     1.355455     1.347812     1.340169     1.332526
      1.324883     1.317240     1.309596     1.301953     1.294310     1.286667     1.279024     1.271381     1.263738     1.256095
      1.248452     1.240808     1.233165     1.225522     1.217879     1.210236     1.202593     1.194950     1.187307     1.179664
      1.172021     1.164377     1.156734     1.149091     1.141448     1.133805     1.126162     1.118519     1.110876     1.103233
      1.095590     1.087946     1.080303     1.072660     1.065017     1.057374     1.049731     1.042088     1.034445     1.026802
      1.019158     1.011515     1.003872     0.996229     0.988586     0.980943     0.973300     0.965657     0.958014     0.950371
      0.942727     0.935084     0.927441     0.919798     0.912155     0.904512     0.896869     0.889226     0.881583     0.873940
      0.866296     0.858653     0.851010     0.843367     0.835724     0.828081     0.820438     0.812795     0.805152     0.797508
      0.789865     0.782222     0.774579     0.766936     0.759293     0.751650     0.744007     0.736364     0.728721     0.721077
      0.713434     0.705791     0.698148     0.690505     0.682862     0.675219     0.667576     0.659933     0.652290     0.644646
      0.637003     0.629360     0.621717     0.614074     0.606431     0.598788     0.591145     0.583502     0.575858     0.568215
      0.560572     0.552929     0.545286     0.537643     0.530000     0.522357     0.514714     0.507071     0.499427     0.491784
      0.484141     0.476498     0.468855     0.461212     0.453569     0.445925     0.438282     0.430639     0.422996     0.415353
      0.407710     0.400067     0.392424     0.384780     0.377137     0.369494     0.361851     0.354208     0.346565     0.338922
      0.331278     0.323635     0.315992     0.308349     0.300706     0.293063     0.285420     0.277777     0.270133     0.262490
      0.254847     0.247204     0.239561     0.231918     0.224275     0.216631     0.208988     0.201345
 NY phased data points follow
  -7.25301E+01 -7.06047E+01 -6.60088E+01 -6.86572E+01 -7.17932E+01 -6.62830E+01 -6.25196E+01 -6.47234E+01 -5.73765E+01 -5.70388E+01
  -5.84481E+01 -5.65690E+01 -5.70592E+01 -5.90617E+01 -5.35415E+01 -6.21871E+01 -6.02215E+01 -6.02672E+01 -6.01056E+01 -6.01918E+01
  -5.99823E+01 -5.68203E+01 -5.53301E+01 -5.81824E+01 -5.28343E+01 -5.14563E+01 -5.02994E+01 -5.10334E+01 -4.91112E+01 -4.92112E+01
  -4.50523E+01 -4.77258E+01 -5.05818E+01 -4.34116E+01 -4.54227E+01 -4.53742E+01 -4.24883E+01 -4.30480E+01 -4.42366E+01 -4.32637E+01
  -4.24368E+01 -3.89494E+01 -4.17508E+01 -4.20950E+01 -3.95160E+01 -3.74321E+01 -3.89321E+01 -3.66060E+01 -3.60245E+01 -3.73377E+01
  -3.41300E+01 -3.45511E+01 -3.73605E+01 -3.38072E+01 -3.83203E+01 -3.33382E+01 -3.70051E+01 -3.42250E+01 -3.11172E+01 -3.60674E+01
  -3.40205E+01 -3.34754E+01 -3.10374E+01 -3.29319E+01 -3.45960E+01 -3.30718E+01 -3.59548E+01 -3.26410E+01 -3.13643E+01 -3.22559E+01
  -3.05685E+01 -3.04469E+01 -2.96417E+01 -2.69231E+01 -3.12753E+01 -2.73772E+01 -2.82725E+01 -2.74443E+01 -2.81736E+01 -2.80450E+01
  -2.78207E+01 -2.75679E+01 -2.74490E+01 -2.60712E+01 -2.51347E+01 -2.25297E+01 -2.64776E+01 -2.49823E+01 -2.56125E+01 -2.29017E+01
  -2.28205E+01 -2.34076E+01 -2.24649E+01 -2.15052E+01 -2.17759E+01 -1.75910E+01 -2.07691E+01 -1.82963E+01 -1.51978E+01 -1.95266E+01
  -1.15950E+01 -1.21639E+01 -1.09435E+01 -1.27921E+01 -1.06795E+01 -1.08862E+01 -1.43686E+01 -1.59759E+01 -1.67385E+01 -1.80866E+01
  -1.89292E+01 -2.19606E+01 -1.67327E+01 -1.84371E+01 -2.24682E+01 -1.73732E+01 -1.98932E+01 -1.70009E+01 -1.48831E+01 -1.64754E+01
  -1.45467E+01 -1.27388E+01 -1.17864E+01 -8.50291E+00 -6.24113E+00 -3.02546E+00 -1.68846E-01  2.05754E+00 -5.60937E+00 -1.96082E-01
  -2.35816E+00 -4.78019E+00 -5.38347E+00 -1.02446E+01 -1.16424E+01 -1.18005E+01 -1.12816E+01 -1.26670E+01 -1.11288E+01 -1.09158E+01
  -1.20779E+01 -1.09707E+01 -1.02897E+01 -1.11622E+01 -1.55079E+01 -1.10925E+01 -1.24188E+01 -1.48310E+01 -1.09250E+01 -1.16888E+01
  -1.03797E+01 -1.09605E+01 -1.10805E+01 -1.14441E+01 -1.14125E+01 -6.94165E+00 -1.11094E+01 -8.60084E+00 -7.55811E+00 -8.07479E+00
  -6.56359E+00 -8.36877E+00 -8.87430E+00 -8.42476E+00 -9.38917E+00 -7.87104E+00 -8.76293E+00 -9.32772E+00 -1.19268E+01 -1.13105E+01
  -1.17079E+01 -1.16656E+01 -1.38275E+01 -1.09307E+01 -1.31317E+01 -1.54027E+01 -1.49756E+01 -1.21328E+01 -1.20727E+01 -5.82968E+00
  -1.05465E+01 -1.05466E+01 -6.44148E+00 -7.50845E+00 -5.48623E+00 -6.92303E+00 -9.29244E+00 -1.40157E+01 -9.99507E+00 -1.06854E+01
  -8.71165E+00 -3.25007E+00 -8.66772E+00 -6.79520E+00 -2.85429E+00 -5.22162E+00 -9.40020E+00 -5.19026E+00 -7.05867E+00 -4.76880E+00
  -3.50249E+00 -6.17641E+00 -2.40030E+00 -6.09246E+00 -2.05615E+00 -4.60930E+00 -3.85286E+00 -4.25266E+00 -3.18910E+00 -2.63153E+00
  -2.25831E+00 -4.08858E-01  1.53211E+00  4.48184E-01  1.09671E+00 -3.78043E+00  2.34059E+00 -1.16483E+00 -1.11000E+00 -1.73550E+00
  -3.12543E+00  1.00809E+00 -1.96949E+00 -6.76778E-01 -1.83315E+00 -3.03052E+00 -3.97787E+00 -9.96848E-01 -3.14467E-01  1.82675E+00
   2.76389E+00 -6.83324E-01  1.89025E+00  3.45372E+00  3.53605E+00  5.29072E-01  1.60870E+00 -3.34535E-01  1.61471E+00 -5.17058E-01
   1.41991E-01 -2.76324E-01 -3.86608E+00  4.51657E-02  1.14726E+00  2.37091E+00  3.22495E+00  8.20418E-01  3.66313E+00  3.66381E+00
   4.04770E+00  4.90294E+00  3.30282E+00  8.81967E+00  1.05712E+01  1.67053E+01  2.44583E+01  2.95181E+01  3.48102E+01  3.55939E+01
   4.03113E+01  3.64597E+01  3.30986E+01  2.81954E+01  2.43998E+01  1.66211E+01  1.40857E+01  1.05211E+01  5.42156E+00  2.21769E+00
   4.28617E+00  1.84912E+00  5.66766E-01  2.37805E+00  1.24368E+00  2.78505E+00  4.49385E-02  1.45736E+00  3.91834E+00  4.08725E+00
   4.25105E+00  2.28541E+00  2.57268E+00  1.24910E+00  3.61715E+00  1.91631E+00  5.27776E+00  3.21232E+00  5.12843E+00  7.87034E+00
   1.78807E+00  3.50626E+00  5.51188E+00  6.33762E+00  1.51521E+00  6.66206E+00  5.45670E+00  3.81956E+00  4.27559E+00  3.10554E+00
   5.51909E+00  7.15127E+00  5.77348E+00  7.27444E+00  2.46368E+00  7.96990E+00  5.43068E+00  4.52476E+00  3.79999E+00  6.71466E+00
   6.72344E+00  5.38694E+00  4.61816E+00  8.16322E+00  5.86324E+00  9.06111E+00  8.55139E+00  7.80124E+00  7.29195E+00  5.17049E+00
   8.12111E+00  5.48952E+00  6.09711E+00  7.81292E+00  7.10716E+00  9.56029E+00  8.07376E+00  1.21170E+01  7.87239E+00  1.12394E+01
   8.59022E+00  6.39745E+00  7.15053E+00  9.76635E+00  1.18742E+01  7.21277E+00  1.33737E+01  8.02222E+00  1.21926E+01  1.37890E+01
   1.40311E+01  1.14167E+01  1.38272E+01  1.19908E+01  1.26428E+01  1.22637E+01  1.33144E+01  8.79346E+00  7.59612E+00  7.84453E+00
   1.17561E+01  7.63868E+00  5.80146E+00  6.56950E+00  1.11090E+01  9.14052E+00  7.96735E+00  1.03694E+01  1.03028E+01  9.89258E+00
   9.16797E+00  9.08750E+00  7.96440E+00  1.37477E+01  9.23830E+00  8.31575E+00  7.59100E+00  8.57398E+00  1.11467E+01  1.00019E+01
   8.66287E+00  9.57703E+00  1.24993E+01  9.35959E+00  9.43454E+00  8.80373E+00  1.12199E+01  1.32715E+01  6.31272E+00  8.85273E+00
   1.05976E+01  9.99998E+00  7.53598E+00  7.67301E+00  1.16396E+01  9.90213E+00  1.01929E+01  7.49221E+00  7.78178E+00  9.36544E+00
   6.30769E+00  7.35390E+00  8.04718E+00  9.33044E+00  7.40806E+00  1.27793E+01  1.34970E+01  1.18134E+01  1.25394E+01  1.26970E+01
   1.28100E+01  1.31624E+01  1.28448E+01  8.65245E+00  1.16462E+01  1.37772E+01  1.14365E+01  1.40643E+01  1.38213E+01  1.32197E+01
   1.39572E+01  1.42585E+01  1.09606E+01  1.18345E+01  1.00617E+01  1.07420E+01  1.13382E+01  8.08482E+00  7.70625E+00  1.19281E+01
   1.38114E+01  8.85222E+00  7.73401E+00  1.00806E+01  9.06677E+00  9.78088E+00  7.96883E+00  1.18288E+01  5.10097E+00  7.27047E+00
   7.90293E+00  9.30851E+00  7.26873E+00  7.94089E+00  5.50926E+00  1.12461E+01  1.14048E+01  9.57058E+00  6.76228E+00  5.16854E+00
   9.05905E+00  8.92197E+00  1.04149E+01  7.53640E+00  6.12274E+00  5.93494E+00  8.90598E+00  1.01858E+01  1.04093E+01  8.96489E+00
   8.06739E+00  8.36147E+00  7.66515E+00  9.74368E+00  7.98251E+00  8.45137E+00  8.52904E+00  8.04068E+00  9.60281E+00  8.82320E+00
   1.04938E+01  9.98049E+00  8.74012E+00  9.56571E+00  9.45630E+00  9.88286E+00  8.65905E+00  8.00156E+00  9.14831E+00  8.05366E+00
   1.26291E+01  8.71639E+00  8.77261E+00  1.00212E+01  7.21772E+00  6.86087E+00  8.29589E+00  9.38956E+00  9.04964E+00  6.32487E+00
   8.89062E+00  8.39242E+00  5.83782E+00  7.39127E+00  9.18288E+00  8.72162E+00  6.23369E+00  1.03910E+01  1.16034E+01  1.01826E+01
   6.39833E+00  9.63465E+00  6.76751E+00  6.36625E+00  6.66397E+00  9.94017E+00  7.25813E+00  8.68320E+00
 NY points of the fit to the data follow
  -6.63366E+01 -6.67012E+01 -6.65918E+01 -6.62823E+01 -6.57279E+01 -6.48042E+01 -6.36169E+01 -6.22166E+01 -6.06887E+01 -5.93825E+01
  -5.85018E+01 -5.78450E+01 -5.72986E+01 -5.70039E+01 -5.69996E+01 -5.70984E+01 -5.71683E+01 -5.72328E+01 -5.71922E+01 -5.69057E+01
  -5.64582E+01 -5.59489E+01 -5.52885E+01 -5.44848E+01 -5.35937E+01 -5.25634E+01 -5.14023E+01 -5.01813E+01 -4.89608E+01 -4.78203E+01
  -4.68786E+01 -4.61869E+01 -4.56823E+01 -4.53894E+01 -4.53600E+01 -4.55178E+01 -4.57539E+01 -4.60078E+01 -4.61301E+01 -4.58337E+01
  -4.50280E+01 -4.38534E+01 -4.24060E+01 -4.07495E+01 -3.90532E+01 -3.75692E+01 -3.65325E+01 -3.60749E+01 -3.61410E+01 -3.65670E+01
  -3.72045E+01 -3.78961E+01 -3.84766E+01 -3.87683E+01 -3.86806E+01 -3.82404E+01 -3.74945E+01 -3.65502E+01 -3.56089E+01 -3.48524E+01
  -3.43493E+01 -3.40344E+01 -3.38466E+01 -3.37036E+01 -3.35114E+01 -3.32338E+01 -3.28519E+01 -3.23344E+01 -3.16780E+01 -3.09403E+01
  -3.01819E+01 -2.94821E+01 -2.89205E+01 -2.85005E+01 -2.81986E+01 -2.80171E+01 -2.79281E+01 -2.78525E+01 -2.77067E+01 -2.74387E+01
  -2.71261E+01 -2.67705E+01 -2.63665E+01 -2.59817E+01 -2.56465E+01 -2.53782E+01 -2.52226E+01 -2.51679E+01 -2.51004E+01 -2.49982E+01
  -2.48931E+01 -2.47623E+01 -2.45783E+01 -2.42723E+01 -2.35837E+01 -2.23837E+01 -2.08922E+01 -1.90862E+01 -1.70280E+01 -1.49735E+01
  -1.31132E+01 -1.17006E+01 -1.10392E+01 -1.11287E+01 -1.16826E+01 -1.25772E+01 -1.38293E+01 -1.52792E+01 -1.66348E+01 -1.77347E+01
  -1.85603E+01 -1.90302E+01 -1.91201E+01 -1.89974E+01 -1.88154E+01 -1.86113E+01 -1.83866E+01 -1.81186E+01 -1.77203E+01 -1.68082E+01
  -1.52389E+01 -1.32835E+01 -1.09010E+01 -8.17717E+00 -5.45447E+00 -3.02438E+00 -1.23414E+00 -4.77735E-01 -7.25839E-01 -1.61049E+00
  -3.01043E+00 -4.93142E+00 -7.12573E+00 -9.21632E+00 -1.09687E+01 -1.23088E+01 -1.31013E+01 -1.33278E+01 -1.32235E+01 -1.29949E+01
  -1.27121E+01 -1.24163E+01 -1.21365E+01 -1.18855E+01 -1.16805E+01 -1.15403E+01 -1.14594E+01 -1.14173E+01 -1.13871E+01 -1.13472E+01
  -1.12848E+01 -1.11907E+01 -1.10744E+01 -1.09807E+01 -1.09123E+01 -1.08570E+01 -1.08166E+01 -1.07632E+01 -1.06998E+01 -1.06290E+01
  -1.05215E+01 -1.03725E+01 -1.02140E+01 -1.00830E+01 -9.99872E+00 -9.95879E+00 -9.94480E+00 -9.95992E+00 -1.00359E+01 -1.01687E+01
  -1.03020E+01 -1.04181E+01 -1.05024E+01 -1.05459E+01 -1.05245E+01 -1.04220E+01 -1.02626E+01 -1.00876E+01 -9.93469E+00 -9.81586E+00
  -9.68003E+00 -9.49164E+00 -9.27553E+00 -9.02029E+00 -8.67311E+00 -8.21077E+00 -7.63834E+00 -6.97403E+00 -6.27279E+00 -5.60412E+00
  -5.05038E+00 -4.62787E+00 -4.33469E+00 -4.18728E+00 -4.16396E+00 -4.21200E+00 -4.27243E+00 -4.29980E+00 -4.22204E+00 -4.02747E+00
  -3.76491E+00 -3.45336E+00 -3.13828E+00 -2.88949E+00 -2.76506E+00 -2.78576E+00 -2.90362E+00 -3.08328E+00 -3.26873E+00 -3.39139E+00
  -3.41143E+00 -3.29663E+00 -3.05035E+00 -2.71894E+00 -2.41405E+00 -2.25300E+00 -2.26205E+00 -2.39709E+00 -2.61678E+00 -2.87729E+00
  -3.10952E+00 -3.22714E+00 -3.15859E+00 -2.90527E+00 -2.53006E+00 -2.06815E+00 -1.55211E+00 -1.05076E+00 -6.20876E-01 -2.66401E-01
   4.21590E-02  3.13684E-01  5.44873E-01  7.35619E-01  8.91624E-01  9.92325E-01  1.02145E+00  9.82011E-01  9.03471E-01  8.33594E-01
   8.24442E-01  8.97789E-01  1.05873E+00  1.31883E+00  1.66010E+00  2.03228E+00  2.39489E+00  2.73600E+00  3.04381E+00  3.31281E+00
   3.58833E+00  4.08618E+00  5.68038E+00  8.78348E+00  1.27351E+01  1.76222E+01  2.32825E+01  2.88960E+01  3.37410E+01  3.70104E+01
   3.78363E+01  3.63016E+01  3.33276E+01  2.93207E+01  2.42915E+01  1.87838E+01  1.36929E+01  9.48824E+00  6.20967E+00  4.08530E+00
   3.16768E+00  2.92404E+00  2.86447E+00  2.86200E+00  2.88463E+00  2.91590E+00  2.94990E+00  2.98415E+00  3.01547E+00  3.04461E+00
   3.07580E+00  3.11190E+00  3.15497E+00  3.20781E+00  3.27246E+00  3.34848E+00  3.43419E+00  3.52797E+00  3.62931E+00  3.73754E+00
   3.85169E+00  3.97135E+00  4.09666E+00  4.22686E+00  4.36072E+00  4.49691E+00  4.63424E+00  4.77113E+00  4.90599E+00  5.03731E+00
   5.16393E+00  5.28473E+00  5.39894E+00  5.50600E+00  5.60580E+00  5.69855E+00  5.78504E+00  5.86633E+00  5.94403E+00  6.01998E+00
   6.09643E+00  6.17573E+00  6.26063E+00  6.35395E+00  6.45878E+00  6.57835E+00  6.71668E+00  6.87937E+00  7.07715E+00  7.33010E+00
   7.62074E+00  7.90322E+00  8.17328E+00  8.40784E+00  8.56832E+00  8.63445E+00  8.59079E+00  8.46597E+00  8.35544E+00  8.30620E+00
   8.33828E+00  8.47609E+00  8.73852E+00  9.12974E+00  9.61524E+00  1.01225E+01  1.06005E+01  1.10420E+01  1.14511E+01  1.18550E+01
   1.22051E+01  1.24195E+01  1.25257E+01  1.24817E+01  1.22139E+01  1.17028E+01  1.09311E+01  1.00166E+01  9.14423E+00  8.42997E+00
   7.95087E+00  7.74669E+00  7.85317E+00  8.27874E+00  8.90939E+00  9.55521E+00  1.01291E+01  1.06101E+01  1.09184E+01  1.09899E+01
   1.08551E+01  1.06003E+01  1.02894E+01  9.95573E+00  9.65906E+00  9.44590E+00  9.29930E+00  9.18680E+00  9.09407E+00  9.01471E+00
   8.94558E+00  8.88498E+00  8.83220E+00  8.78694E+00  8.74936E+00  8.71975E+00  8.69866E+00  8.68664E+00  8.68444E+00  8.69278E+00
   8.71256E+00  8.74463E+00  8.78999E+00  8.84959E+00  8.92448E+00  9.01560E+00  9.12393E+00  9.25021E+00  9.39504E+00  9.55862E+00
   9.74086E+00  9.94101E+00  1.01578E+01  1.03892E+01  1.06324E+01  1.08838E+01  1.11389E+01  1.13926E+01  1.16394E+01  1.18731E+01
   1.20875E+01  1.22766E+01  1.24347E+01  1.25568E+01  1.26392E+01  1.26790E+01  1.26750E+01  1.26273E+01  1.25376E+01  1.24087E+01
   1.22450E+01  1.20514E+01  1.18339E+01  1.15987E+01  1.13520E+01  1.10999E+01  1.08481E+01  1.06015E+01  1.03643E+01  1.01400E+01
   9.93094E+00  9.73881E+00  9.56450E+00  9.40818E+00  9.26956E+00  9.14784E+00  9.04196E+00  8.95061E+00  8.87242E+00  8.80592E+00
   8.74978E+00  8.70262E+00  8.66327E+00  8.63056E+00  8.60355E+00  8.58134E+00  8.56324E+00  8.54855E+00  8.53678E+00  8.52740E+00
   8.52009E+00  8.51447E+00  8.51031E+00  8.50735E+00  8.50542E+00  8.50430E+00  8.50392E+00  8.50410E+00  8.50481E+00  8.50589E+00
   8.50733E+00  8.50899E+00  8.51089E+00  8.51293E+00  8.51513E+00  8.51739E+00  8.51973E+00  8.52208E+00  8.52448E+00  8.52687E+00
   8.52927E+00  8.53161E+00  8.53394E+00  8.53619E+00  8.53842E+00  8.54057E+00  8.54268E+00  8.54468E+00  8.54664E+00  8.54850E+00
   8.55031E+00  8.55202E+00  8.55367E+00  8.55522E+00  8.55672E+00  8.55812E+00  8.55947E+00  8.56074E+00  8.56195E+00  8.56307E+00
   8.56416E+00  8.56517E+00  8.56615E+00  8.56706E+00  8.56795E+00  8.56877E+00  8.56960E+00  8.57039E+00  8.57118E+00  8.57195E+00
   8.57273E+00  8.57350E+00  8.57434E+00  8.57518E+00  8.57611E+00  8.57706E+00  8.57813E+00  8.57928E+00
 NY background values follow
    -6.890E+01   -6.837E+01   -6.784E+01   -6.731E+01   -6.678E+01   -6.625E+01   -6.572E+01   -6.519E+01   -6.466E+01   -6.413E+01
    -6.360E+01   -6.307E+01   -6.254E+01   -6.201E+01   -6.149E+01   -6.096E+01   -6.043E+01   -5.990E+01   -5.938E+01   -5.885E+01
    -5.833E+01   -5.780E+01   -5.728E+01   -5.676E+01   -5.624E+01   -5.572E+01   -5.520E+01   -5.469E+01   -5.417E+01   -5.366E+01
    -5.314E+01   -5.263E+01   -5.213E+01   -5.162E+01   -5.111E+01   -5.061E+01   -5.011E+01   -4.961E+01   -4.911E+01   -4.862E+01
    -4.812E+01   -4.763E+01   -4.714E+01   -4.666E+01   -4.617E+01   -4.569E+01   -4.521E+01   -4.474E+01   -4.426E+01   -4.379E+01
    -4.332E+01   -4.286E+01   -4.240E+01   -4.194E+01   -4.148E+01   -4.103E+01   -4.057E+01   -4.013E+01   -3.968E+01   -3.924E+01
    -3.880E+01   -3.836E+01   -3.792E+01   -3.749E+01   -3.706E+01   -3.664E+01   -3.622E+01   -3.580E+01   -3.538E+01   -3.497E+01
    -3.455E+01   -3.415E+01   -3.374E+01   -3.334E+01   -3.294E+01   -3.255E+01   -3.215E+01   -3.176E+01   -3.138E+01   -3.100E+01
    -3.062E+01   -3.024E+01   -2.987E+01   -2.950E+01   -2.913E+01   -2.876E+01   -2.840E+01   -2.805E+01   -2.769E+01   -2.734E+01
    -2.700E+01   -2.665E+01   -2.631E+01   -2.598E+01   -2.564E+01   -2.531E+01   -2.498E+01   -2.466E+01   -2.434E+01   -2.402E+01
    -2.371E+01   -2.340E+01   -2.309E+01   -2.279E+01   -2.249E+01   -2.219E+01   -2.189E+01   -2.160E+01   -2.132E+01   -2.103E+01
    -2.075E+01   -2.047E+01   -2.019E+01   -1.992E+01   -1.965E+01   -1.939E+01   -1.912E+01   -1.886E+01   -1.861E+01   -1.835E+01
    -1.810E+01   -1.785E+01   -1.761E+01   -1.737E+01   -1.713E+01   -1.689E+01   -1.666E+01   -1.643E+01   -1.620E+01   -1.598E+01
    -1.575E+01   -1.554E+01   -1.532E+01   -1.511E+01   -1.490E+01   -1.469E+01   -1.449E+01   -1.428E+01   -1.409E+01   -1.389E+01
    -1.370E+01   -1.351E+01   -1.332E+01   -1.313E+01   -1.295E+01   -1.277E+01   -1.259E+01   -1.241E+01   -1.224E+01   -1.207E+01
    -1.190E+01   -1.173E+01   -1.157E+01   -1.140E+01   -1.124E+01   -1.108E+01   -1.092E+01   -1.077E+01   -1.061E+01   -1.046E+01
    -1.031E+01   -1.016E+01   -1.001E+01   -9.866E+00   -9.721E+00   -9.578E+00   -9.436E+00   -9.295E+00   -9.155E+00   -9.017E+00
    -8.879E+00   -8.743E+00   -8.608E+00   -8.473E+00   -8.340E+00   -8.208E+00   -8.076E+00   -7.945E+00   -7.815E+00   -7.686E+00
    -7.557E+00   -7.428E+00   -7.301E+00   -7.174E+00   -7.047E+00   -6.921E+00   -6.795E+00   -6.670E+00   -6.546E+00   -6.422E+00
    -6.299E+00   -6.177E+00   -6.055E+00   -5.933E+00   -5.813E+00   -5.693E+00   -5.573E+00   -5.454E+00   -5.336E+00   -5.219E+00
    -5.102E+00   -4.986E+00   -4.871E+00   -4.756E+00   -4.642E+00   -4.529E+00   -4.416E+00   -4.305E+00   -4.193E+00   -4.083E+00
    -3.974E+00   -3.865E+00   -3.757E+00   -3.650E+00   -3.543E+00   -3.437E+00   -3.333E+00   -3.229E+00   -3.125E+00   -3.023E+00
    -2.921E+00   -2.821E+00   -2.721E+00   -2.622E+00   -2.524E+00   -2.426E+00   -2.330E+00   -2.234E+00   -2.140E+00   -2.046E+00
    -1.953E+00   -1.861E+00   -1.769E+00   -1.679E+00   -1.589E+00   -1.500E+00   -1.412E+00   -1.324E+00   -1.237E+00   -1.151E+00
    -1.065E+00   -9.801E-01   -8.958E-01   -8.120E-01   -7.289E-01   -6.463E-01   -5.643E-01   -4.828E-01   -4.018E-01   -3.214E-01
    -2.414E-01   -1.619E-01   -8.285E-02   -4.230E-03    7.398E-02    1.518E-01    2.292E-01    3.063E-01    3.830E-01    4.594E-01
     5.355E-01    6.113E-01    6.868E-01    7.620E-01    8.370E-01    9.118E-01    9.864E-01    1.061E+00    1.135E+00    1.209E+00
     1.283E+00    1.357E+00    1.430E+00    1.504E+00    1.578E+00    1.651E+00    1.724E+00    1.797E+00    1.870E+00    1.943E+00
     2.016E+00    2.088E+00    2.160E+00    2.232E+00    2.304E+00    2.376E+00    2.447E+00    2.519E+00    2.590E+00    2.660E+00
     2.731E+00    2.801E+00    2.871E+00    2.941E+00    3.010E+00    3.080E+00    3.148E+00    3.217E+00    3.285E+00    3.353E+00
     3.421E+00    3.488E+00    3.555E+00    3.622E+00    3.688E+00    3.754E+00    3.820E+00    3.885E+00    3.950E+00    4.014E+00
     4.078E+00    4.142E+00    4.205E+00    4.267E+00    4.330E+00    4.392E+00    4.453E+00    4.514E+00    4.574E+00    4.634E+00
     4.694E+00    4.753E+00    4.812E+00    4.870E+00    4.928E+00    4.985E+00    5.041E+00    5.098E+00    5.153E+00    5.209E+00
     5.263E+00    5.318E+00    5.371E+00    5.425E+00    5.477E+00    5.530E+00    5.582E+00    5.633E+00    5.684E+00    5.734E+00
     5.784E+00    5.833E+00    5.881E+00    5.930E+00    5.977E+00    6.024E+00    6.071E+00    6.117E+00    6.163E+00    6.208E+00
     6.252E+00    6.296E+00    6.340E+00    6.382E+00    6.425E+00    6.466E+00    6.508E+00    6.548E+00    6.588E+00    6.628E+00
     6.667E+00    6.705E+00    6.743E+00    6.781E+00    6.817E+00    6.854E+00    6.889E+00    6.924E+00    6.959E+00    6.993E+00
     7.027E+00    7.060E+00    7.092E+00    7.124E+00    7.156E+00    7.187E+00    7.218E+00    7.248E+00    7.278E+00    7.307E+00
     7.336E+00    7.364E+00    7.392E+00    7.420E+00    7.447E+00    7.474E+00    7.500E+00    7.526E+00    7.552E+00    7.577E+00
     7.601E+00    7.626E+00    7.650E+00    7.674E+00    7.697E+00    7.720E+00    7.743E+00    7.765E+00    7.787E+00    7.809E+00
     7.830E+00    7.851E+00    7.872E+00    7.893E+00    7.913E+00    7.933E+00    7.953E+00    7.972E+00    7.991E+00    8.010E+00
     8.029E+00    8.048E+00    8.066E+00    8.084E+00    8.101E+00    8.119E+00    8.136E+00    8.153E+00    8.170E+00    8.186E+00
     8.202E+00    8.218E+00    8.234E+00    8.249E+00    8.264E+00    8.279E+00    8.293E+00    8.308E+00    8.322E+00    8.335E+00
     8.349E+00    8.362E+00    8.375E+00    8.388E+00    8.400E+00    8.412E+00    8.424E+00    8.436E+00    8.447E+00    8.458E+00
     8.469E+00    8.479E+00    8.490E+00    8.500E+00    8.509E+00    8.519E+00    8.528E+00    8.537E+00    8.545E+00    8.553E+00
     8.561E+00    8.569E+00    8.577E+00    8.584E+00    8.591E+00    8.597E+00    8.604E+00    8.610E+00    8.615E+00    8.621E+00
     8.626E+00    8.632E+00    8.636E+00    8.641E+00    8.645E+00    8.650E+00    8.654E+00    8.657E+00    8.661E+00    8.664E+00
     8.668E+00    8.671E+00    8.673E+00    8.676E+00    8.678E+00    8.681E+00    8.683E+00    8.685E+00    8.687E+00    8.688E+00
     8.690E+00    8.691E+00    8.693E+00    8.694E+00    8.695E+00    8.696E+00    8.697E+00    8.697E+00    8.698E+00    8.699E+00
     8.699E+00    8.699E+00    8.700E+00    8.700E+00    8.700E+00    8.700E+00    8.700E+00    8.700E+00
 Ala      Conc. = 1.16E+02
