 LCModel (Version 6.3-1L) Copyright: S.W. Provencher.          Ref.: Magn. Reson. Med. 30:672-679 (1993).                
 Slice#2 Row#4 Col#13  K_02_press_1_raw_act
 36 lines in following concentration table = NCONC+1
    Conc.  %SD /Cr+PCr  Metabolite                                         
   45.474 104%   0.000 Ala                                                 
    3.392 556%   0.000 Asp                                                 
    0.000 999%   0.000 Cr                                                  
    0.000 999%   0.000 PCr                                                 
    0.000 999%   0.000 GABA                                                
    0.000 999%   0.000 Glc                                                 
   46.503 155%   0.000 Gln                                                 
  126.417  94%   0.000 Glu                                                 
    0.000 999%   0.000 GPC                                                 
    0.000 999%   0.000 PCh                                                 
    0.000 999%   0.000 GSH                                                 
    0.000 999%   0.000 Ins                                                 
    7.727 563%   0.000 Lac                                                 
    0.000 999%   0.000 NAA                                                 
    0.000 999%   0.000 NAAG                                                
    2.554 142%   0.000 Scyllo                                              
    0.000 999%   0.000 Tau                                                 
    0.957 999%   0.000 -CrCH2                                              
    0.000 999%   0.000 GPC+PCh                                             
    0.000 999%   0.000 NAA+NAAG                                            
    0.000 999%   0.000 Cr+PCr                                              
  172.919  91%   0.000 Glu+Gln                                             
 2.94E+05   3%   0.000 Lip13a                                              
  874.997  22%   0.000 Lip13b                                              
 2.40E+04  16%   0.000 Lip09                                               
    0.000 999%   0.000 MM09                                                
 2.20E+03  34%   0.000 Lip20                                               
  168.684 310%   0.000 MM20                                                
    0.000 999%   0.000 MM12                                                
 1.19E+04  27%   0.000 MM14                                                
 4.43E+03  32%   0.000 MM17                                                
 2.95E+05   3%   0.000 Lip13a+Lip13b                                       
 3.07E+05   3%   0.000 MM14+Lip13a+Lip13b+MM12                             
 2.40E+04  16%   0.000 MM09+Lip09                                          
 2.37E+03  28%   0.000 MM20+Lip20                                          
   6 lines in following misc. output table
  FWHM = 0.038 ppm    S/N = 190                                            
  Data shift =-0.054 ppm                                                   
  Ph: 108 deg      22.1 deg/ppm                                            
  alphaB,S = 1.6E+00,   4.4E+00                                            
   14 spline knots.   Ns = 5(1)                                            
  ( 4) 3 infls.   ( 2) 2 extrs.                                            
  498 points on ppm-axis = NY
      4.000000     3.992357     3.984714     3.977070     3.969427     3.961784     3.954141     3.946497     3.938854     3.931211
      3.923568     3.915925     3.908281     3.900638     3.892995     3.885352     3.877708     3.870065     3.862422     3.854779
      3.847136     3.839492     3.831849     3.824206     3.816563     3.808919     3.801276     3.793633     3.785990     3.778347
      3.770703     3.763060     3.755417     3.747774     3.740130     3.732487     3.724844     3.717201     3.709558     3.701914
      3.694271     3.686628     3.678985     3.671341     3.663698     3.656055     3.648412     3.640769     3.633125     3.625482
      3.617839     3.610196     3.602552     3.594909     3.587266     3.579623     3.571980     3.564336     3.556693     3.549050
      3.541407     3.533763     3.526120     3.518477     3.510834     3.503191     3.495547     3.487904     3.480261     3.472618
      3.464974     3.457331     3.449688     3.442045     3.434402     3.426758     3.419115     3.411472     3.403829     3.396185
      3.388542     3.380899     3.373256     3.365613     3.357969     3.350326     3.342683     3.335040     3.327396     3.319753
      3.312110     3.304467     3.296824     3.289180     3.281537     3.273894     3.266251     3.258607     3.250964     3.243321
      3.235678     3.228034     3.220391     3.212748     3.205105     3.197462     3.189818     3.182175     3.174532     3.166889
      3.159245     3.151602     3.143959     3.136316     3.128673     3.121029     3.113386     3.105743     3.098100     3.090456
      3.082813     3.075170     3.067527     3.059884     3.052240     3.044597     3.036954     3.029311     3.021667     3.014024
      3.006381     2.998738     2.991095     2.983451     2.975808     2.968165     2.960522     2.952878     2.945235     2.937592
      2.929949     2.922306     2.914662     2.907019     2.899376     2.891733     2.884089     2.876446     2.868803     2.861160
      2.853517     2.845873     2.838230     2.830587     2.822944     2.815300     2.807657     2.800014     2.792371     2.784728
      2.777084     2.769441     2.761798     2.754155     2.746511     2.738868     2.731225     2.723582     2.715939     2.708295
      2.700652     2.693009     2.685366     2.677722     2.670079     2.662436     2.654793     2.647150     2.639506     2.631863
      2.624220     2.616577     2.608933     2.601290     2.593647     2.586004     2.578361     2.570717     2.563074     2.555431
      2.547788     2.540144     2.532501     2.524858     2.517215     2.509572     2.501928     2.494285     2.486642     2.478999
      2.471355     2.463712     2.456069     2.448426     2.440783     2.433139     2.425496     2.417853     2.410210     2.402566
      2.394923     2.387280     2.379637     2.371994     2.364350     2.356707     2.349064     2.341421     2.333777     2.326134
      2.318491     2.310848     2.303205     2.295561     2.287918     2.280275     2.272632     2.264988     2.257345     2.249702
      2.242059     2.234416     2.226772     2.219129     2.211486     2.203843     2.196199     2.188556     2.180913     2.173270
      2.165627     2.157983     2.150340     2.142697     2.135054     2.127410     2.119767     2.112124     2.104481     2.096838
      2.089194     2.081551     2.073908     2.066265     2.058621     2.050978     2.043335     2.035692     2.028049     2.020405
      2.012762     2.005119     1.997476     1.989833     1.982190     1.974546     1.966903     1.959260     1.951617     1.943974
      1.936331     1.928688     1.921045     1.913402     1.905759     1.898115     1.890472     1.882829     1.875186     1.867543
      1.859900     1.852257     1.844614     1.836971     1.829327     1.821684     1.814041     1.806398     1.798755     1.791112
      1.783469     1.775826     1.768183     1.760540     1.752896     1.745253     1.737610     1.729967     1.722324     1.714681
      1.707038     1.699395     1.691752     1.684108     1.676465     1.668822     1.661179     1.653536     1.645893     1.638250
      1.630607     1.622964     1.615321     1.607677     1.600034     1.592391     1.584748     1.577105     1.569462     1.561819
      1.554176     1.546533     1.538890     1.531246     1.523603     1.515960     1.508317     1.500674     1.493031     1.485388
      1.477745     1.470102     1.462458     1.454815     1.447172     1.439529     1.431886     1.424243     1.416600     1.408957
      1.401314     1.393671     1.386027     1.378384     1.370741     1.363098     1.355455     1.347812     1.340169     1.332526
      1.324883     1.317240     1.309596     1.301953     1.294310     1.286667     1.279024     1.271381     1.263738     1.256095
      1.248452     1.240808     1.233165     1.225522     1.217879     1.210236     1.202593     1.194950     1.187307     1.179664
      1.172021     1.164377     1.156734     1.149091     1.141448     1.133805     1.126162     1.118519     1.110876     1.103233
      1.095590     1.087946     1.080303     1.072660     1.065017     1.057374     1.049731     1.042088     1.034445     1.026802
      1.019158     1.011515     1.003872     0.996229     0.988586     0.980943     0.973300     0.965657     0.958014     0.950371
      0.942727     0.935084     0.927441     0.919798     0.912155     0.904512     0.896869     0.889226     0.881583     0.873940
      0.866296     0.858653     0.851010     0.843367     0.835724     0.828081     0.820438     0.812795     0.805152     0.797508
      0.789865     0.782222     0.774579     0.766936     0.759293     0.751650     0.744007     0.736364     0.728721     0.721077
      0.713434     0.705791     0.698148     0.690505     0.682862     0.675219     0.667576     0.659933     0.652290     0.644646
      0.637003     0.629360     0.621717     0.614074     0.606431     0.598788     0.591145     0.583502     0.575858     0.568215
      0.560572     0.552929     0.545286     0.537643     0.530000     0.522357     0.514714     0.507071     0.499427     0.491784
      0.484141     0.476498     0.468855     0.461212     0.453569     0.445925     0.438282     0.430639     0.422996     0.415353
      0.407710     0.400067     0.392424     0.384780     0.377137     0.369494     0.361851     0.354208     0.346565     0.338922
      0.331278     0.323635     0.315992     0.308349     0.300706     0.293063     0.285420     0.277777     0.270133     0.262490
      0.254847     0.247204     0.239561     0.231918     0.224275     0.216631     0.208988     0.201345
 NY phased data points follow
  -3.27732E+01 -3.00470E+01 -3.18130E+01 -3.24936E+01 -3.30552E+01 -3.39970E+01 -3.21476E+01 -3.38723E+01 -3.28014E+01 -3.39701E+01
  -3.09617E+01 -3.42701E+01 -3.36089E+01 -3.02648E+01 -3.72430E+01 -3.09457E+01 -3.34535E+01 -3.38676E+01 -3.64500E+01 -3.49057E+01
  -3.32910E+01 -3.29432E+01 -2.94647E+01 -3.08516E+01 -3.40215E+01 -3.49707E+01 -3.28156E+01 -3.41232E+01 -3.44046E+01 -3.75507E+01
  -3.28875E+01 -3.36879E+01 -3.45466E+01 -3.08510E+01 -3.23762E+01 -3.50390E+01 -3.23665E+01 -3.65588E+01 -3.52207E+01 -3.43693E+01
  -2.89727E+01 -3.52153E+01 -3.41618E+01 -3.40673E+01 -3.26908E+01 -3.71498E+01 -3.19991E+01 -3.48155E+01 -3.39865E+01 -3.44587E+01
  -3.54288E+01 -3.58972E+01 -3.49935E+01 -3.25223E+01 -3.46206E+01 -3.33829E+01 -3.67099E+01 -3.11304E+01 -3.50721E+01 -3.32177E+01
  -3.38810E+01 -3.27329E+01 -3.39978E+01 -3.36593E+01 -3.46336E+01 -3.26739E+01 -3.28852E+01 -3.48311E+01 -3.08229E+01 -3.34419E+01
  -3.59624E+01 -3.47215E+01 -3.47593E+01 -3.55640E+01 -3.21048E+01 -3.59650E+01 -3.70863E+01 -3.48352E+01 -3.80322E+01 -3.41319E+01
  -3.17199E+01 -3.10054E+01 -3.31779E+01 -2.91477E+01 -3.17002E+01 -3.56031E+01 -3.28891E+01 -3.39600E+01 -3.16281E+01 -3.35620E+01
  -3.69657E+01 -3.56459E+01 -3.44817E+01 -3.65437E+01 -3.58134E+01 -3.55550E+01 -3.84908E+01 -3.30001E+01 -3.82882E+01 -3.55065E+01
  -3.73184E+01 -3.81940E+01 -3.80991E+01 -3.68483E+01 -3.67255E+01 -3.53645E+01 -3.76822E+01 -4.01432E+01 -3.63564E+01 -3.65666E+01
  -3.57211E+01 -2.95623E+01 -3.54273E+01 -3.25583E+01 -3.36519E+01 -3.45507E+01 -3.51587E+01 -3.85176E+01 -3.72800E+01 -3.51117E+01
  -3.70624E+01 -3.62441E+01 -3.48234E+01 -3.53212E+01 -3.85292E+01 -3.77817E+01 -3.93640E+01 -3.69627E+01 -3.76466E+01 -3.44521E+01
  -3.64221E+01 -3.61322E+01 -3.40615E+01 -3.59488E+01 -3.53031E+01 -3.48098E+01 -3.38565E+01 -3.34660E+01 -3.34410E+01 -3.41729E+01
  -3.67707E+01 -3.36876E+01 -3.91765E+01 -3.64248E+01 -3.37604E+01 -3.18592E+01 -3.55215E+01 -3.44031E+01 -3.29729E+01 -3.87621E+01
  -3.04887E+01 -3.17715E+01 -3.60612E+01 -3.29220E+01 -3.52586E+01 -3.42589E+01 -3.06757E+01 -3.55760E+01 -3.46678E+01 -3.67190E+01
  -3.63243E+01 -3.12173E+01 -3.31022E+01 -3.55961E+01 -3.37508E+01 -3.20073E+01 -3.45910E+01 -3.03397E+01 -3.16215E+01 -3.37267E+01
  -3.43266E+01 -3.34530E+01 -3.69203E+01 -3.25057E+01 -3.37799E+01 -3.47930E+01 -3.21491E+01 -3.18132E+01 -3.48101E+01 -3.35080E+01
  -3.17215E+01 -3.45215E+01 -3.47709E+01 -3.29056E+01 -3.63980E+01 -3.14620E+01 -3.07256E+01 -3.23012E+01 -3.48434E+01 -3.34504E+01
  -3.21388E+01 -3.20074E+01 -3.32231E+01 -3.13971E+01 -3.10953E+01 -2.98117E+01 -3.29478E+01 -3.37465E+01 -3.31670E+01 -2.91940E+01
  -2.98344E+01 -2.97936E+01 -3.13789E+01 -3.31196E+01 -3.28572E+01 -3.26782E+01 -2.82095E+01 -3.23415E+01 -3.20217E+01 -3.39388E+01
  -2.78508E+01 -2.70851E+01 -2.60363E+01 -2.88563E+01 -2.59974E+01 -2.47573E+01 -2.74227E+01 -2.52281E+01 -2.68410E+01 -2.42851E+01
  -2.70875E+01 -2.69385E+01 -2.57999E+01 -2.50292E+01 -2.15213E+01 -2.01663E+01 -2.11946E+01 -1.94566E+01 -2.16128E+01 -2.16555E+01
  -1.93978E+01 -1.87086E+01 -2.29730E+01 -2.11381E+01 -1.68287E+01 -1.60418E+01 -1.87838E+01 -1.39967E+01 -1.55702E+01 -1.48669E+01
  -1.56230E+01 -1.44619E+01 -1.29437E+01 -1.71966E+01 -1.27583E+01 -1.28483E+01 -8.34048E+00 -8.98186E+00 -1.04518E+01 -1.38797E+01
  -8.35303E+00 -1.15214E+01 -9.76610E+00 -9.84683E+00 -7.76652E+00 -7.85763E+00 -7.06180E+00 -9.47606E+00 -7.52207E+00 -8.39546E+00
  -5.94393E+00 -8.51398E+00 -6.49794E+00 -5.38508E+00 -7.59796E+00 -5.40333E+00  1.30053E+00  3.91508E+00  2.21463E+00  8.33921E+00
   4.92141E+00  9.16982E+00  3.55753E+00  7.76571E+00  4.81659E+00  1.01314E+01  1.20657E+01  1.64681E+01  1.81964E+01  2.29216E+01
   2.26581E+01  2.74120E+01  2.45622E+01  2.99442E+01  3.08967E+01  3.25268E+01  3.39287E+01  4.21136E+01  4.16484E+01  4.20125E+01
   4.93939E+01  5.08672E+01  5.63608E+01  5.30550E+01  5.78552E+01  6.49427E+01  6.59409E+01  7.04899E+01  7.49166E+01  8.15232E+01
   8.43349E+01  8.70285E+01  9.47498E+01  9.88911E+01  1.09126E+02  1.10530E+02  1.19831E+02  1.21863E+02  1.32215E+02  1.39249E+02
   1.50764E+02  1.55688E+02  1.63998E+02  1.78113E+02  1.85359E+02  2.00379E+02  2.15212E+02  2.25361E+02  2.38763E+02  2.51442E+02
   2.61220E+02  2.77323E+02  2.94052E+02  3.07642E+02  3.24758E+02  3.42889E+02  3.60902E+02  3.80936E+02  4.00968E+02  4.23541E+02
   4.42060E+02  4.63899E+02  4.92723E+02  5.14635E+02  5.41965E+02  5.65580E+02  5.95487E+02  6.25100E+02  6.50253E+02  6.77721E+02
   7.07019E+02  7.27484E+02  7.50247E+02  7.76337E+02  7.96781E+02  8.16974E+02  8.31293E+02  8.46821E+02  8.57142E+02  8.65734E+02
   8.71767E+02  8.72014E+02  8.69622E+02  8.62976E+02  8.52783E+02  8.42002E+02  8.24076E+02  8.03903E+02  7.84185E+02  7.56453E+02
   7.29126E+02  7.05928E+02  6.76393E+02  6.46086E+02  6.15867E+02  5.87000E+02  5.63342E+02  5.32860E+02  5.04579E+02  4.80734E+02
   4.56367E+02  4.33779E+02  4.07988E+02  3.85039E+02  3.64642E+02  3.44086E+02  3.23186E+02  3.07395E+02  2.91169E+02  2.76834E+02
   2.62466E+02  2.49809E+02  2.38930E+02  2.25610E+02  2.18990E+02  2.06973E+02  1.98822E+02  1.91710E+02  1.77773E+02  1.79193E+02
   1.70364E+02  1.67042E+02  1.57822E+02  1.51254E+02  1.46086E+02  1.38397E+02  1.35312E+02  1.29784E+02  1.24093E+02  1.20295E+02
   1.16081E+02  1.13772E+02  1.07103E+02  1.06082E+02  1.00668E+02  9.96125E+01  9.58656E+01  9.08516E+01  8.54812E+01  8.33445E+01
   8.00657E+01  7.60094E+01  7.19379E+01  7.00302E+01  6.61333E+01  5.92338E+01  5.88159E+01  5.50729E+01  4.98987E+01  4.82130E+01
   4.47284E+01  4.14112E+01  3.90618E+01  3.69170E+01  3.40473E+01  3.07814E+01  2.61879E+01  2.48600E+01  1.99139E+01  1.77485E+01
   1.51106E+01  1.03859E+01  1.11991E+01  7.91578E+00  7.31385E+00  3.40874E+00  8.14723E-01 -3.45984E+00 -2.26418E+00 -6.19489E+00
  -5.64017E+00 -1.19048E+01 -1.42798E+01 -1.20440E+01 -1.45428E+01 -1.64943E+01 -1.67886E+01 -2.12311E+01 -2.15498E+01 -2.25731E+01
  -2.29358E+01 -2.56205E+01 -2.68008E+01 -2.81542E+01 -2.94227E+01 -3.19712E+01 -3.24568E+01 -3.32607E+01 -3.28495E+01 -3.61602E+01
  -3.23897E+01 -3.90590E+01 -3.87219E+01 -3.94998E+01 -3.92095E+01 -4.07740E+01 -4.02281E+01 -4.03680E+01 -4.35016E+01 -4.03639E+01
  -4.62895E+01 -4.62663E+01 -4.59467E+01 -4.65842E+01 -4.50970E+01 -4.77815E+01 -4.82180E+01 -5.03857E+01 -5.05542E+01 -4.94700E+01
  -5.01393E+01 -4.93420E+01 -5.10006E+01 -4.82110E+01 -5.24734E+01 -5.26464E+01 -5.34234E+01 -5.01931E+01 -5.67039E+01 -5.17768E+01
  -5.53715E+01 -5.51755E+01 -5.28978E+01 -5.55398E+01 -5.47928E+01 -5.39328E+01 -5.25720E+01 -5.25885E+01
 NY points of the fit to the data follow
  -3.26889E+01 -3.27242E+01 -3.27620E+01 -3.28044E+01 -3.28508E+01 -3.28979E+01 -3.29452E+01 -3.29925E+01 -3.30369E+01 -3.30723E+01
  -3.30932E+01 -3.31025E+01 -3.31129E+01 -3.31394E+01 -3.31833E+01 -3.32301E+01 -3.32681E+01 -3.32931E+01 -3.32957E+01 -3.32586E+01
  -3.31681E+01 -3.30491E+01 -3.29681E+01 -3.29862E+01 -3.31218E+01 -3.33789E+01 -3.37471E+01 -3.41206E+01 -3.43094E+01 -3.41525E+01
  -3.36655E+01 -3.30669E+01 -3.26401E+01 -3.25748E+01 -3.28849E+01 -3.34265E+01 -3.39875E+01 -3.43267E+01 -3.43137E+01 -3.40339E+01
  -3.36874E+01 -3.34828E+01 -3.34792E+01 -3.36031E+01 -3.37392E+01 -3.38120E+01 -3.38391E+01 -3.38675E+01 -3.38942E+01 -3.39185E+01
  -3.39426E+01 -3.39664E+01 -3.39894E+01 -3.40113E+01 -3.40319E+01 -3.40518E+01 -3.40716E+01 -3.40920E+01 -3.41133E+01 -3.41352E+01
  -3.41572E+01 -3.41792E+01 -3.42014E+01 -3.42241E+01 -3.42474E+01 -3.42713E+01 -3.42960E+01 -3.43213E+01 -3.43469E+01 -3.43726E+01
  -3.43983E+01 -3.44244E+01 -3.44511E+01 -3.44786E+01 -3.45067E+01 -3.45351E+01 -3.45641E+01 -3.45936E+01 -3.46236E+01 -3.46531E+01
  -3.46788E+01 -3.46878E+01 -3.46745E+01 -3.46484E+01 -3.46155E+01 -3.45873E+01 -3.45932E+01 -3.46666E+01 -3.48099E+01 -3.49752E+01
  -3.50969E+01 -3.51472E+01 -3.51536E+01 -3.51687E+01 -3.52045E+01 -3.52452E+01 -3.52870E+01 -3.53292E+01 -3.53714E+01 -3.54136E+01
  -3.54556E+01 -3.54973E+01 -3.55385E+01 -3.55792E+01 -3.56191E+01 -3.56581E+01 -3.56962E+01 -3.57331E+01 -3.57687E+01 -3.58029E+01
  -3.58354E+01 -3.58662E+01 -3.58951E+01 -3.59218E+01 -3.59463E+01 -3.59684E+01 -3.59878E+01 -3.60045E+01 -3.60182E+01 -3.60287E+01
  -3.60358E+01 -3.60394E+01 -3.60392E+01 -3.60350E+01 -3.60266E+01 -3.60138E+01 -3.59963E+01 -3.59740E+01 -3.59466E+01 -3.59139E+01
  -3.58758E+01 -3.58320E+01 -3.57825E+01 -3.57271E+01 -3.56658E+01 -3.55986E+01 -3.55257E+01 -3.54477E+01 -3.53653E+01 -3.52787E+01
  -3.51879E+01 -3.50928E+01 -3.49931E+01 -3.48885E+01 -3.47795E+01 -3.46692E+01 -3.45621E+01 -3.44614E+01 -3.43662E+01 -3.42730E+01
  -3.41797E+01 -3.40882E+01 -3.40018E+01 -3.39235E+01 -3.38540E+01 -3.37932E+01 -3.37411E+01 -3.36975E+01 -3.36625E+01 -3.36356E+01
  -3.36157E+01 -3.36015E+01 -3.35924E+01 -3.35891E+01 -3.35922E+01 -3.36000E+01 -3.36100E+01 -3.36214E+01 -3.36361E+01 -3.36555E+01
  -3.36773E+01 -3.36975E+01 -3.37127E+01 -3.37222E+01 -3.37271E+01 -3.37281E+01 -3.37248E+01 -3.37161E+01 -3.36997E+01 -3.36733E+01
  -3.36353E+01 -3.35866E+01 -3.35283E+01 -3.34607E+01 -3.33850E+01 -3.33030E+01 -3.32157E+01 -3.31225E+01 -3.30225E+01 -3.29175E+01
  -3.28081E+01 -3.26989E+01 -3.25926E+01 -3.24822E+01 -3.23577E+01 -3.22074E+01 -3.20140E+01 -3.17658E+01 -3.14681E+01 -3.11398E+01
  -3.07970E+01 -3.04624E+01 -3.01821E+01 -2.99786E+01 -2.98586E+01 -2.98337E+01 -2.98667E+01 -2.98938E+01 -2.98608E+01 -2.96709E+01
  -2.92063E+01 -2.84007E+01 -2.73864E+01 -2.64105E+01 -2.56606E+01 -2.52549E+01 -2.52211E+01 -2.55144E+01 -2.60167E+01 -2.64260E+01
  -2.64705E+01 -2.61087E+01 -2.54165E+01 -2.44866E+01 -2.33633E+01 -2.22716E+01 -2.15037E+01 -2.11490E+01 -2.10348E+01 -2.09126E+01
  -2.06956E+01 -2.04343E+01 -2.01319E+01 -1.97511E+01 -1.93125E+01 -1.88440E+01 -1.83482E+01 -1.78161E+01 -1.72759E+01 -1.67760E+01
  -1.63541E+01 -1.60026E+01 -1.56463E+01 -1.51855E+01 -1.45948E+01 -1.39195E+01 -1.32443E+01 -1.26257E+01 -1.20627E+01 -1.14990E+01
  -1.08750E+01 -1.01989E+01 -9.47644E+00 -8.74320E+00 -8.07052E+00 -7.50587E+00 -7.01354E+00 -6.50920E+00 -5.91794E+00 -5.20476E+00
  -4.40423E+00 -3.59397E+00 -2.84157E+00 -2.16262E+00 -1.51617E+00 -8.28473E-01 -6.24142E-02  7.91091E-01  1.73475E+00  2.76762E+00
   3.88328E+00  5.08712E+00  6.40912E+00  7.85707E+00  9.40808E+00  1.10439E+01  1.27584E+01  1.45678E+01  1.64984E+01  1.85653E+01
   2.07632E+01  2.30823E+01  2.55183E+01  2.80627E+01  3.07010E+01  3.34195E+01  3.62098E+01  3.90688E+01  4.19929E+01  4.49770E+01
   4.80192E+01  5.11203E+01  5.42845E+01  5.75208E+01  6.08429E+01  6.42697E+01  6.78240E+01  7.15325E+01  7.54262E+01  7.95390E+01
   8.39063E+01  8.85645E+01  9.35499E+01  9.88972E+01  1.04639E+02  1.10805E+02  1.17421E+02  1.24508E+02  1.32084E+02  1.40160E+02
   1.48746E+02  1.57844E+02  1.67458E+02  1.77587E+02  1.88232E+02  1.99394E+02  2.11079E+02  2.23296E+02  2.36060E+02  2.49395E+02
   2.63332E+02  2.77919E+02  2.93224E+02  3.09287E+02  3.26084E+02  3.43619E+02  3.61905E+02  3.80909E+02  4.00635E+02  4.21216E+02
   4.42936E+02  4.66062E+02  4.90542E+02  5.16069E+02  5.42345E+02  5.69208E+02  5.96466E+02  6.23705E+02  6.50577E+02  6.76963E+02
   7.02864E+02  7.28161E+02  7.52491E+02  7.75367E+02  7.96463E+02  8.15503E+02  8.32208E+02  8.46296E+02  8.57503E+02  8.65606E+02
   8.70428E+02  8.71812E+02  8.69596E+02  8.63666E+02  8.54010E+02  8.40752E+02  8.24120E+02  8.04424E+02  7.82078E+02  7.57577E+02
   7.31424E+02  7.04071E+02  6.75897E+02  6.47247E+02  6.18434E+02  5.89728E+02  5.61356E+02  5.33510E+02  5.06356E+02  4.80033E+02
   4.54656E+02  4.30317E+02  4.07086E+02  3.85010E+02  3.64119E+02  3.44422E+02  3.25913E+02  3.08571E+02  2.92367E+02  2.77258E+02
   2.63198E+02  2.50134E+02  2.38010E+02  2.26768E+02  2.16349E+02  2.06692E+02  1.97741E+02  1.89437E+02  1.81724E+02  1.74549E+02
   1.67861E+02  1.61610E+02  1.55750E+02  1.50236E+02  1.45027E+02  1.40086E+02  1.35375E+02  1.30862E+02  1.26517E+02  1.22313E+02
   1.18224E+02  1.14230E+02  1.10311E+02  1.06452E+02  1.02638E+02  9.88588E+01  9.51056E+01  9.13721E+01  8.76542E+01  8.39493E+01
   8.02569E+01  7.65779E+01  7.29143E+01  6.92693E+01  6.56469E+01  6.20515E+01  5.84882E+01  5.49622E+01  5.14786E+01  4.80429E+01
   4.46599E+01  4.13343E+01  3.80705E+01  3.48724E+01  3.17433E+01  2.86862E+01  2.57035E+01  2.27970E+01  1.99681E+01  1.72177E+01
   1.45463E+01  1.19538E+01  9.44009E+00  7.00434E+00  4.64568E+00  2.36288E+00  1.54527E-01 -1.98096E+00 -4.04532E+00 -6.04036E+00
  -7.96806E+00 -9.83037E+00 -1.16293E+01 -1.33669E+01 -1.50452E+01 -1.66662E+01 -1.82319E+01 -1.97443E+01 -2.12052E+01 -2.26166E+01
  -2.39801E+01 -2.52977E+01 -2.65708E+01 -2.78012E+01 -2.89905E+01 -3.01404E+01 -3.12524E+01 -3.23279E+01 -3.33683E+01 -3.43750E+01
  -3.53494E+01 -3.62925E+01 -3.72057E+01 -3.80900E+01 -3.89465E+01 -3.97762E+01 -4.05802E+01 -4.13593E+01 -4.21145E+01 -4.28466E+01
  -4.35564E+01 -4.42447E+01 -4.49122E+01 -4.55597E+01 -4.61878E+01 -4.67972E+01 -4.73885E+01 -4.79622E+01 -4.85190E+01 -4.90595E+01
  -4.95840E+01 -5.00931E+01 -5.05873E+01 -5.10671E+01 -5.15328E+01 -5.19849E+01 -5.24239E+01 -5.28500E+01 -5.32636E+01 -5.36652E+01
  -5.40550E+01 -5.44334E+01 -5.48006E+01 -5.51571E+01 -5.55031E+01 -5.58388E+01 -5.61646E+01 -5.64806E+01
 NY background values follow
    -3.105E+01   -3.111E+01   -3.116E+01   -3.122E+01   -3.127E+01   -3.132E+01   -3.138E+01   -3.143E+01   -3.148E+01   -3.153E+01
    -3.157E+01   -3.162E+01   -3.167E+01   -3.171E+01   -3.176E+01   -3.180E+01   -3.184E+01   -3.189E+01   -3.193E+01   -3.197E+01
    -3.201E+01   -3.205E+01   -3.209E+01   -3.213E+01   -3.217E+01   -3.220E+01   -3.224E+01   -3.228E+01   -3.232E+01   -3.235E+01
    -3.239E+01   -3.243E+01   -3.246E+01   -3.250E+01   -3.253E+01   -3.257E+01   -3.261E+01   -3.264E+01   -3.268E+01   -3.271E+01
    -3.275E+01   -3.278E+01   -3.282E+01   -3.286E+01   -3.289E+01   -3.293E+01   -3.297E+01   -3.300E+01   -3.304E+01   -3.308E+01
    -3.312E+01   -3.316E+01   -3.320E+01   -3.323E+01   -3.327E+01   -3.332E+01   -3.336E+01   -3.340E+01   -3.344E+01   -3.348E+01
    -3.353E+01   -3.357E+01   -3.362E+01   -3.366E+01   -3.371E+01   -3.375E+01   -3.380E+01   -3.385E+01   -3.390E+01   -3.395E+01
    -3.400E+01   -3.405E+01   -3.411E+01   -3.416E+01   -3.421E+01   -3.427E+01   -3.433E+01   -3.438E+01   -3.444E+01   -3.450E+01
    -3.456E+01   -3.463E+01   -3.469E+01   -3.475E+01   -3.482E+01   -3.489E+01   -3.495E+01   -3.502E+01   -3.510E+01   -3.517E+01
    -3.524E+01   -3.532E+01   -3.539E+01   -3.547E+01   -3.555E+01   -3.563E+01   -3.571E+01   -3.579E+01   -3.587E+01   -3.596E+01
    -3.604E+01   -3.613E+01   -3.621E+01   -3.630E+01   -3.639E+01   -3.647E+01   -3.656E+01   -3.665E+01   -3.674E+01   -3.683E+01
    -3.692E+01   -3.701E+01   -3.710E+01   -3.719E+01   -3.728E+01   -3.736E+01   -3.745E+01   -3.754E+01   -3.763E+01   -3.772E+01
    -3.781E+01   -3.789E+01   -3.798E+01   -3.806E+01   -3.815E+01   -3.823E+01   -3.832E+01   -3.840E+01   -3.848E+01   -3.856E+01
    -3.864E+01   -3.872E+01   -3.879E+01   -3.887E+01   -3.894E+01   -3.902E+01   -3.909E+01   -3.916E+01   -3.923E+01   -3.929E+01
    -3.936E+01   -3.942E+01   -3.948E+01   -3.954E+01   -3.960E+01   -3.966E+01   -3.971E+01   -3.977E+01   -3.982E+01   -3.987E+01
    -3.992E+01   -3.997E+01   -4.001E+01   -4.006E+01   -4.010E+01   -4.014E+01   -4.018E+01   -4.022E+01   -4.025E+01   -4.029E+01
    -4.032E+01   -4.035E+01   -4.038E+01   -4.041E+01   -4.043E+01   -4.046E+01   -4.048E+01   -4.050E+01   -4.052E+01   -4.054E+01
    -4.055E+01   -4.057E+01   -4.058E+01   -4.059E+01   -4.060E+01   -4.060E+01   -4.061E+01   -4.061E+01   -4.062E+01   -4.062E+01
    -4.061E+01   -4.061E+01   -4.060E+01   -4.060E+01   -4.059E+01   -4.058E+01   -4.057E+01   -4.056E+01   -4.054E+01   -4.053E+01
    -4.051E+01   -4.049E+01   -4.048E+01   -4.046E+01   -4.044E+01   -4.042E+01   -4.040E+01   -4.038E+01   -4.036E+01   -4.034E+01
    -4.032E+01   -4.030E+01   -4.028E+01   -4.025E+01   -4.023E+01   -4.021E+01   -4.020E+01   -4.018E+01   -4.016E+01   -4.014E+01
    -4.013E+01   -4.011E+01   -4.010E+01   -4.008E+01   -4.007E+01   -4.006E+01   -4.005E+01   -4.004E+01   -4.004E+01   -4.003E+01
    -4.003E+01   -4.003E+01   -4.003E+01   -4.004E+01   -4.004E+01   -4.005E+01   -4.006E+01   -4.007E+01   -4.009E+01   -4.010E+01
    -4.012E+01   -4.015E+01   -4.017E+01   -4.020E+01   -4.023E+01   -4.026E+01   -4.029E+01   -4.033E+01   -4.036E+01   -4.040E+01
    -4.045E+01   -4.049E+01   -4.053E+01   -4.058E+01   -4.063E+01   -4.068E+01   -4.074E+01   -4.079E+01   -4.085E+01   -4.090E+01
    -4.096E+01   -4.103E+01   -4.109E+01   -4.115E+01   -4.122E+01   -4.129E+01   -4.136E+01   -4.143E+01   -4.150E+01   -4.157E+01
    -4.165E+01   -4.172E+01   -4.180E+01   -4.188E+01   -4.196E+01   -4.204E+01   -4.212E+01   -4.220E+01   -4.229E+01   -4.237E+01
    -4.246E+01   -4.255E+01   -4.263E+01   -4.272E+01   -4.281E+01   -4.290E+01   -4.299E+01   -4.309E+01   -4.318E+01   -4.328E+01
    -4.337E+01   -4.347E+01   -4.356E+01   -4.366E+01   -4.376E+01   -4.386E+01   -4.396E+01   -4.407E+01   -4.417E+01   -4.427E+01
    -4.438E+01   -4.449E+01   -4.459E+01   -4.470E+01   -4.481E+01   -4.492E+01   -4.503E+01   -4.515E+01   -4.526E+01   -4.537E+01
    -4.549E+01   -4.561E+01   -4.572E+01   -4.584E+01   -4.596E+01   -4.608E+01   -4.620E+01   -4.633E+01   -4.645E+01   -4.658E+01
    -4.670E+01   -4.683E+01   -4.696E+01   -4.709E+01   -4.722E+01   -4.735E+01   -4.748E+01   -4.762E+01   -4.775E+01   -4.789E+01
    -4.803E+01   -4.817E+01   -4.831E+01   -4.845E+01   -4.859E+01   -4.873E+01   -4.887E+01   -4.902E+01   -4.917E+01   -4.931E+01
    -4.946E+01   -4.961E+01   -4.976E+01   -4.991E+01   -5.006E+01   -5.022E+01   -5.037E+01   -5.053E+01   -5.068E+01   -5.084E+01
    -5.100E+01   -5.116E+01   -5.132E+01   -5.148E+01   -5.164E+01   -5.180E+01   -5.197E+01   -5.213E+01   -5.230E+01   -5.246E+01
    -5.263E+01   -5.280E+01   -5.297E+01   -5.314E+01   -5.331E+01   -5.348E+01   -5.365E+01   -5.382E+01   -5.400E+01   -5.417E+01
    -5.435E+01   -5.452E+01   -5.470E+01   -5.488E+01   -5.506E+01   -5.524E+01   -5.542E+01   -5.560E+01   -5.578E+01   -5.597E+01
    -5.615E+01   -5.633E+01   -5.652E+01   -5.670E+01   -5.689E+01   -5.708E+01   -5.727E+01   -5.745E+01   -5.764E+01   -5.783E+01
    -5.803E+01   -5.822E+01   -5.841E+01   -5.860E+01   -5.880E+01   -5.899E+01   -5.919E+01   -5.938E+01   -5.958E+01   -5.978E+01
    -5.998E+01   -6.018E+01   -6.038E+01   -6.058E+01   -6.078E+01   -6.098E+01   -6.118E+01   -6.139E+01   -6.159E+01   -6.179E+01
    -6.200E+01   -6.221E+01   -6.241E+01   -6.262E+01   -6.283E+01   -6.304E+01   -6.325E+01   -6.346E+01   -6.367E+01   -6.388E+01
    -6.409E+01   -6.430E+01   -6.451E+01   -6.473E+01   -6.494E+01   -6.515E+01   -6.536E+01   -6.558E+01   -6.579E+01   -6.600E+01
    -6.621E+01   -6.642E+01   -6.663E+01   -6.684E+01   -6.705E+01   -6.726E+01   -6.746E+01   -6.767E+01   -6.787E+01   -6.807E+01
    -6.828E+01   -6.847E+01   -6.867E+01   -6.887E+01   -6.906E+01   -6.926E+01   -6.945E+01   -6.964E+01   -6.982E+01   -7.001E+01
    -7.019E+01   -7.037E+01   -7.055E+01   -7.072E+01   -7.089E+01   -7.106E+01   -7.123E+01   -7.139E+01   -7.155E+01   -7.171E+01
    -7.186E+01   -7.201E+01   -7.216E+01   -7.230E+01   -7.244E+01   -7.258E+01   -7.271E+01   -7.284E+01   -7.297E+01   -7.309E+01
    -7.321E+01   -7.333E+01   -7.344E+01   -7.355E+01   -7.366E+01   -7.376E+01   -7.386E+01   -7.396E+01   -7.405E+01   -7.414E+01
    -7.423E+01   -7.432E+01   -7.440E+01   -7.448E+01   -7.455E+01   -7.463E+01   -7.470E+01   -7.476E+01   -7.483E+01   -7.489E+01
    -7.494E+01   -7.500E+01   -7.505E+01   -7.510E+01   -7.515E+01   -7.519E+01   -7.523E+01   -7.527E+01   -7.531E+01   -7.534E+01
    -7.537E+01   -7.540E+01   -7.543E+01   -7.545E+01   -7.547E+01   -7.549E+01   -7.550E+01   -7.552E+01
 Ala      Conc. = 4.55E+01
