 LCModel (Version 6.3-1L) Copyright: S.W. Provencher.          Ref.: Magn. Reson. Med. 30:672-679 (1993).                
 Slice#1 Row#14 Col#7  K_02_press_1_raw_act
 36 lines in following concentration table = NCONC+1
    Conc.  %SD /Cr+PCr  Metabolite                                         
   38.407  96%   0.535 Ala                                                 
   12.497  96%   0.174 Asp                                                 
   10.157 603%   0.141 Cr                                                  
   61.697 101%   0.859 PCr                                                 
    8.047  89%   0.112 GABA                                                
    9.192  78%   0.128 Glc                                                 
    2.424 999% 3.4E-02 Gln                                                 
   38.909 207%   0.541 Glu                                                 
    0.000 999%   0.000 GPC                                                 
   25.882  28%   0.360 PCh                                                 
   15.665 167%   0.218 GSH                                                 
    9.286 869%   0.129 Ins                                                 
   20.564 194%   0.286 Lac                                                 
  133.077  17%   1.852 NAA                                                 
    0.000 999%   0.000 NAAG                                                
    3.548  67% 4.9E-02 Scyllo                                              
   18.115  66%   0.252 Tau                                                 
   24.444  70%   0.340 -CrCH2                                              
   25.882  28%   0.360 GPC+PCh                                             
  133.077  17%   1.852 NAA+NAAG                                            
   71.854  27%   1.000 Cr+PCr                                              
   41.333 255%   0.575 Glu+Gln                                             
  472.117  27%   6.570 Lip13a                                              
    0.000 999%   0.000 Lip13b                                              
   33.266 145%   0.463 Lip09                                               
    0.000 999%   0.000 MM09                                                
   45.299  88%   0.630 Lip20                                               
    0.000 999%   0.000 MM20                                                
 3.32E-04 999% 4.6E-06 MM12                                                
 1.20E-02 999% 1.7E-04 MM14                                                
 4.06E-03 999% 5.6E-05 MM17                                                
  472.117  27%   6.570 Lip13a+Lip13b                                       
  472.129  27%   6.571 MM14+Lip13a+Lip13b+MM12                             
   33.266 145%   0.463 MM09+Lip09                                          
   45.299  88%   0.630 MM20+Lip20                                          
   6 lines in following misc. output table
  FWHM = 0.046 ppm    S/N =   1                                            
  Data shift =-0.046 ppm                                                   
  Ph: -42 deg     -30.6 deg/ppm                                            
  alphaB,S = 8.5E+01,   8.2E+01                                            
   14 spline knots.   Ns = 7(1)                                            
  (11) 2 infls.   (12) 2 extrs.                                            
  498 points on ppm-axis = NY
      4.000000     3.992357     3.984714     3.977070     3.969427     3.961784     3.954141     3.946497     3.938854     3.931211
      3.923568     3.915925     3.908281     3.900638     3.892995     3.885352     3.877708     3.870065     3.862422     3.854779
      3.847136     3.839492     3.831849     3.824206     3.816563     3.808919     3.801276     3.793633     3.785990     3.778347
      3.770703     3.763060     3.755417     3.747774     3.740130     3.732487     3.724844     3.717201     3.709558     3.701914
      3.694271     3.686628     3.678985     3.671341     3.663698     3.656055     3.648412     3.640769     3.633125     3.625482
      3.617839     3.610196     3.602552     3.594909     3.587266     3.579623     3.571980     3.564336     3.556693     3.549050
      3.541407     3.533763     3.526120     3.518477     3.510834     3.503191     3.495547     3.487904     3.480261     3.472618
      3.464974     3.457331     3.449688     3.442045     3.434402     3.426758     3.419115     3.411472     3.403829     3.396185
      3.388542     3.380899     3.373256     3.365613     3.357969     3.350326     3.342683     3.335040     3.327396     3.319753
      3.312110     3.304467     3.296824     3.289180     3.281537     3.273894     3.266251     3.258607     3.250964     3.243321
      3.235678     3.228034     3.220391     3.212748     3.205105     3.197462     3.189818     3.182175     3.174532     3.166889
      3.159245     3.151602     3.143959     3.136316     3.128673     3.121029     3.113386     3.105743     3.098100     3.090456
      3.082813     3.075170     3.067527     3.059884     3.052240     3.044597     3.036954     3.029311     3.021667     3.014024
      3.006381     2.998738     2.991095     2.983451     2.975808     2.968165     2.960522     2.952878     2.945235     2.937592
      2.929949     2.922306     2.914662     2.907019     2.899376     2.891733     2.884089     2.876446     2.868803     2.861160
      2.853517     2.845873     2.838230     2.830587     2.822944     2.815300     2.807657     2.800014     2.792371     2.784728
      2.777084     2.769441     2.761798     2.754155     2.746511     2.738868     2.731225     2.723582     2.715939     2.708295
      2.700652     2.693009     2.685366     2.677722     2.670079     2.662436     2.654793     2.647150     2.639506     2.631863
      2.624220     2.616577     2.608933     2.601290     2.593647     2.586004     2.578361     2.570717     2.563074     2.555431
      2.547788     2.540144     2.532501     2.524858     2.517215     2.509572     2.501928     2.494285     2.486642     2.478999
      2.471355     2.463712     2.456069     2.448426     2.440783     2.433139     2.425496     2.417853     2.410210     2.402566
      2.394923     2.387280     2.379637     2.371994     2.364350     2.356707     2.349064     2.341421     2.333777     2.326134
      2.318491     2.310848     2.303205     2.295561     2.287918     2.280275     2.272632     2.264988     2.257345     2.249702
      2.242059     2.234416     2.226772     2.219129     2.211486     2.203843     2.196199     2.188556     2.180913     2.173270
      2.165627     2.157983     2.150340     2.142697     2.135054     2.127410     2.119767     2.112124     2.104481     2.096838
      2.089194     2.081551     2.073908     2.066265     2.058621     2.050978     2.043335     2.035692     2.028049     2.020405
      2.012762     2.005119     1.997476     1.989833     1.982190     1.974546     1.966903     1.959260     1.951617     1.943974
      1.936331     1.928688     1.921045     1.913402     1.905759     1.898115     1.890472     1.882829     1.875186     1.867543
      1.859900     1.852257     1.844614     1.836971     1.829327     1.821684     1.814041     1.806398     1.798755     1.791112
      1.783469     1.775826     1.768183     1.760540     1.752896     1.745253     1.737610     1.729967     1.722324     1.714681
      1.707038     1.699395     1.691752     1.684108     1.676465     1.668822     1.661179     1.653536     1.645893     1.638250
      1.630607     1.622964     1.615321     1.607677     1.600034     1.592391     1.584748     1.577105     1.569462     1.561819
      1.554176     1.546533     1.538890     1.531246     1.523603     1.515960     1.508317     1.500674     1.493031     1.485388
      1.477745     1.470102     1.462458     1.454815     1.447172     1.439529     1.431886     1.424243     1.416600     1.408957
      1.401314     1.393671     1.386027     1.378384     1.370741     1.363098     1.355455     1.347812     1.340169     1.332526
      1.324883     1.317240     1.309596     1.301953     1.294310     1.286667     1.279024     1.271381     1.263738     1.256095
      1.248452     1.240808     1.233165     1.225522     1.217879     1.210236     1.202593     1.194950     1.187307     1.179664
      1.172021     1.164377     1.156734     1.149091     1.141448     1.133805     1.126162     1.118519     1.110876     1.103233
      1.095590     1.087946     1.080303     1.072660     1.065017     1.057374     1.049731     1.042088     1.034445     1.026802
      1.019158     1.011515     1.003872     0.996229     0.988586     0.980943     0.973300     0.965657     0.958014     0.950371
      0.942727     0.935084     0.927441     0.919798     0.912155     0.904512     0.896869     0.889226     0.881583     0.873940
      0.866296     0.858653     0.851010     0.843367     0.835724     0.828081     0.820438     0.812795     0.805152     0.797508
      0.789865     0.782222     0.774579     0.766936     0.759293     0.751650     0.744007     0.736364     0.728721     0.721077
      0.713434     0.705791     0.698148     0.690505     0.682862     0.675219     0.667576     0.659933     0.652290     0.644646
      0.637003     0.629360     0.621717     0.614074     0.606431     0.598788     0.591145     0.583502     0.575858     0.568215
      0.560572     0.552929     0.545286     0.537643     0.530000     0.522357     0.514714     0.507071     0.499427     0.491784
      0.484141     0.476498     0.468855     0.461212     0.453569     0.445925     0.438282     0.430639     0.422996     0.415353
      0.407710     0.400067     0.392424     0.384780     0.377137     0.369494     0.361851     0.354208     0.346565     0.338922
      0.331278     0.323635     0.315992     0.308349     0.300706     0.293063     0.285420     0.277777     0.270133     0.262490
      0.254847     0.247204     0.239561     0.231918     0.224275     0.216631     0.208988     0.201345
 NY phased data points follow
  -6.13327E+00 -5.26506E+00 -7.77254E+00 -4.92767E+00 -9.50501E+00 -7.57261E+00 -5.09065E+00 -6.74774E+00 -8.67540E+00 -3.32990E+00
  -4.67039E+00 -5.93831E+00 -3.15751E+00 -5.63785E+00 -5.77530E+00 -4.66267E+00 -6.30436E+00 -5.01255E+00 -5.04788E+00 -5.90587E+00
  -7.18830E+00 -4.35893E+00 -7.37022E+00 -1.01996E+01 -5.05258E+00 -5.34052E+00 -5.56550E+00 -1.94134E+00 -5.32774E+00 -5.34862E+00
  -4.82207E+00 -5.70238E+00 -4.37764E+00 -2.77618E+00 -3.52875E+00 -4.81864E+00 -6.08407E+00 -4.05300E+00 -2.77686E+00 -4.38858E+00
  -3.36053E+00 -5.57927E+00 -5.38033E+00 -4.88569E+00 -4.67047E+00  3.08005E-01 -6.19847E+00 -5.45508E+00 -2.49176E+00 -4.82540E+00
  -5.07553E+00 -4.06440E+00 -3.95965E+00 -4.47465E+00 -1.72999E+00 -1.05796E+00 -5.08068E+00 -2.98885E+00 -4.27747E+00 -2.07069E+00
  -1.51317E+00 -2.34661E+00 -2.98230E+00 -3.37020E+00 -2.11866E+00 -4.25611E+00 -3.41882E+00 -1.29198E-01 -4.51078E+00 -3.50558E+00
  -3.47229E+00  4.68166E-01 -4.78752E+00 -1.85636E+00 -3.95267E+00 -1.43492E+00 -9.07265E-01 -2.02555E+00 -3.17386E+00 -1.57364E+00
  -3.19834E+00 -1.35139E+00 -4.17333E+00 -2.77781E+00 -4.36312E+00 -1.76513E+00 -2.41603E+00 -1.05969E+00 -2.49098E+00  3.40437E-01
  -3.72334E+00 -2.13780E+00 -2.57029E+00 -5.14539E-01 -4.95047E-01 -2.89750E+00 -1.96513E+00 -3.02751E-01 -4.26590E+00 -1.29128E+00
   2.49594E-01 -9.19231E-01 -2.16111E+00 -2.28018E+00  6.59158E-01 -4.77810E-01  1.31255E+00  7.14679E-01 -1.42925E-01 -2.77197E+00
  -3.08352E+00 -3.29223E+00 -8.01605E-01 -3.23064E+00 -4.41271E+00 -2.58224E+00 -5.07006E-02 -4.21787E+00 -4.02581E+00 -1.79637E+00
  -1.17980E+00 -3.43214E+00 -1.64018E+00 -1.74350E+00 -1.26575E+00  1.53211E-01  6.61421E-01 -2.01980E-01  1.41648E+00  6.10791E-01
   5.01366E-01  1.22421E+00  3.19598E-01 -4.86895E-01  1.05901E+00 -5.87522E-01 -1.57763E+00 -1.97065E+00 -4.35251E+00 -3.04624E+00
  -1.36666E+00 -1.73944E+00 -1.52252E+00 -1.34012E+00 -8.12589E-01  5.37639E-01 -9.58511E-01 -7.19624E-01 -3.27386E+00 -4.91483E-01
  -4.47995E-01 -3.87858E+00 -1.23555E+00  4.16801E-01  5.15366E-01 -7.44259E-01 -9.55636E-01 -1.35956E+00 -8.66102E-01 -1.38581E+00
   1.07105E-01 -7.25822E-01 -5.72187E-01 -9.51798E-01 -2.68642E+00 -1.11273E+00  1.57975E+00 -4.01229E+00  7.42518E-01 -2.08675E+00
  -1.08835E-01 -1.57330E+00 -4.70606E+00 -4.29652E+00 -1.92546E+00 -2.58828E+00 -1.60545E+00 -2.41616E+00 -2.08845E-01 -5.69991E-01
  -1.77240E+00 -1.52712E-01 -7.28403E-01  7.95123E-01 -2.78059E+00  2.09183E-01 -3.76326E-01 -6.84198E-01  2.00514E-01 -2.19287E+00
  -1.22292E+00 -3.53191E+00 -1.43434E+00 -5.00698E-02 -3.27784E+00  2.05603E+00  3.87464E-01 -6.69684E-01  6.17813E-01  1.41949E-01
   6.11076E-01  3.20430E+00  4.63589E-01  1.90189E-01  4.38877E-02  2.21958E+00 -5.79606E-01 -2.96936E-01  1.90665E+00 -7.44446E-01
   4.73969E-01  2.14345E-01 -1.67714E+00 -1.61656E+00  8.33686E-01  6.29319E-01  1.40214E+00 -4.18124E-01 -5.97386E-01 -9.23313E-02
  -9.54220E-01 -5.44979E-01 -1.75542E-01 -9.34032E-01  1.87682E+00  1.85512E+00 -2.00032E+00 -7.29598E-01 -6.61547E-01 -9.40000E-01
  -3.77801E-02  2.69884E+00  7.48309E-01  8.56401E-01 -9.65962E-01  4.97181E-02  3.40423E-01  2.02111E+00  1.03986E+00 -2.51657E+00
  -1.79998E+00 -4.26977E-01  6.10801E-01 -1.02635E+00 -2.38851E-01 -5.14795E-01 -1.54328E+00 -4.85139E-01 -7.15858E-01  4.72167E-01
  -4.62783E-01 -1.66767E+00  9.33359E-01 -1.61460E+00  7.24593E-01  4.75816E-01 -2.19149E+00  3.43253E+00  2.64893E+00  6.03108E+00
   7.73119E+00  6.48054E+00  6.58698E+00  6.86485E+00  3.91591E+00  2.32364E+00  4.87122E+00  2.23931E+00  1.98792E+00  1.37596E+00
   7.59305E-01 -8.07705E-01 -1.60558E+00  5.31780E-01 -2.65763E-04  6.21268E-01  4.27777E-01  5.85410E-01 -1.67405E+00  1.06695E+00
   2.15968E-01  4.95645E-02  1.23114E+00  1.29270E-01  2.75563E+00  1.00600E+00 -1.37334E+00  1.65164E+00  2.25612E+00  2.12254E+00
   2.00200E+00  1.03330E+00  2.35629E+00  2.60372E+00  1.27750E+00  1.69522E+00  7.33088E-01  7.90281E-01  5.79078E-02  4.25006E+00
  -6.54668E-01  3.77518E+00  1.46833E+00  1.43746E+00  2.89831E+00  1.98173E+00  2.47602E+00 -4.29066E-02 -2.15482E-01  2.92226E+00
   3.59380E+00  2.42496E+00  2.40752E+00  1.66290E+00  3.33720E+00  1.88735E+00  1.19454E+00  1.93941E+00  1.87861E+00  2.94129E+00
  -8.69351E-02  7.89638E-01  2.18085E+00  1.73959E-01  1.54235E+00  3.22039E+00  2.63804E+00  5.09047E+00  2.45181E+00  3.02204E+00
   7.53804E-01  3.27203E+00  1.26425E+00  2.65888E+00  2.83658E+00  2.77096E+00  8.37897E-01  2.79242E+00  4.74828E+00  1.77609E+00
   5.62660E+00  2.39609E+00  1.94319E+00  1.73123E+00  2.06421E+00  5.92734E-01  2.48579E+00  1.58515E+00  2.17881E+00  1.68426E+00
   5.99991E-01  1.18484E+00  1.06163E+00  4.66388E-01  5.94021E+00  2.87220E-01  1.37316E+00  2.62749E+00 -1.62549E+00 -1.48622E-02
   1.68588E+00  3.69705E+00  6.07065E-01  7.23343E-01  4.66500E+00  1.10603E+00  6.36065E-01  2.30168E+00 -1.50119E+00 -2.38893E+00
   3.32082E-01  1.54208E+00 -3.68118E-01 -2.12325E+00  3.29643E+00  1.72711E+00 -5.22571E-01 -2.60137E+00 -2.77680E-01  6.21972E-01
  -3.76163E-01  9.80793E-01 -2.26914E+00 -1.83080E-02  2.07600E+00  1.62070E+00 -1.29891E+00 -6.22908E-01 -3.15549E+00 -1.93445E+00
  -7.94745E-01 -2.01199E+00 -1.78469E+00  1.25264E+00 -3.42369E+00 -1.71462E+00 -3.33717E-01 -6.23393E-01  1.42516E+00 -6.73938E-01
  -2.47316E-01  3.68691E-01 -1.56213E+00  6.81993E-02 -1.01489E-01 -1.93798E-01 -4.84907E-01 -6.43561E-01  1.63949E+00  1.19724E+00
   1.83514E-01 -5.67860E-01  5.64773E-01  3.41460E+00  1.84546E-01 -9.65054E-01  8.81729E-01  1.24035E+00 -9.54249E-01 -2.61860E+00
  -3.59785E-02  6.09134E-01 -3.02136E-01  1.61463E+00 -2.31651E+00 -8.57609E-01 -1.66217E-01 -2.39495E+00  1.01580E+00  2.33246E+00
   4.18218E-01  3.74460E-01  2.29764E-01  2.70797E+00 -7.95428E-01  3.72460E-01 -8.13364E-01  1.08680E+00  1.06171E+00 -6.46432E-01
  -2.25647E+00 -5.20461E-01  1.08324E-01 -1.55846E+00  6.92610E-01 -5.16288E-02 -2.49687E-01 -7.61854E-01 -1.25775E+00 -2.12148E+00
   2.25165E+00  1.66730E+00  5.88726E-01  4.88122E-01  1.59248E+00  7.85599E-01 -1.37609E+00 -1.11984E+00 -5.15191E-01  1.90726E+00
   1.01400E+00 -8.15939E-01 -6.26338E-01  1.51047E+00 -9.45655E-01  1.11076E+00  2.23950E-02 -2.18116E+00 -7.93766E-01  1.33520E+00
  -1.99832E+00 -1.96351E-01 -2.52493E+00  1.02948E+00 -8.67065E-01  1.83594E-01 -2.98100E+00  1.41199E+00 -3.60025E+00  1.19823E+00
  -9.57034E-01 -2.05400E+00 -1.98688E+00 -2.53024E+00 -1.21837E-02 -8.12860E-01 -8.38169E-01 -1.66578E+00 -6.71693E-01  9.33277E-01
   5.29493E-01  1.54614E+00  1.19970E-01 -1.19021E+00 -1.87957E+00  3.14435E-01  2.42859E+00  6.32073E-01
 NY points of the fit to the data follow
  -5.47726E+00 -5.46674E+00 -5.46186E+00 -5.47183E+00 -5.47005E+00 -5.42432E+00 -5.31123E+00 -5.12733E+00 -4.88530E+00 -4.61530E+00
  -4.35612E+00 -4.14589E+00 -4.01818E+00 -3.99629E+00 -4.08616E+00 -4.27471E+00 -4.52643E+00 -4.78015E+00 -4.94959E+00 -5.01073E+00
  -5.00627E+00 -4.95434E+00 -4.88384E+00 -4.81797E+00 -4.76146E+00 -4.70856E+00 -4.66070E+00 -4.62195E+00 -4.58376E+00 -4.53395E+00
  -4.46644E+00 -4.38417E+00 -4.29740E+00 -4.21949E+00 -4.16070E+00 -4.13841E+00 -4.16145E+00 -4.21901E+00 -4.27795E+00 -4.31011E+00
  -4.33404E+00 -4.35697E+00 -4.36075E+00 -4.33763E+00 -4.29997E+00 -4.25825E+00 -4.21499E+00 -4.17250E+00 -4.13192E+00 -4.09155E+00
  -4.05421E+00 -4.02170E+00 -3.99639E+00 -3.97558E+00 -3.95740E+00 -3.93592E+00 -3.90500E+00 -3.86714E+00 -3.82856E+00 -3.79377E+00
  -3.76438E+00 -3.73470E+00 -3.70238E+00 -3.66830E+00 -3.63320E+00 -3.59893E+00 -3.56766E+00 -3.53960E+00 -3.51444E+00 -3.49093E+00
  -3.46449E+00 -3.43084E+00 -3.38824E+00 -3.33709E+00 -3.28076E+00 -3.22508E+00 -3.17695E+00 -3.14156E+00 -3.11950E+00 -3.11531E+00
  -3.12004E+00 -3.11549E+00 -3.09003E+00 -3.03758E+00 -2.95599E+00 -2.85818E+00 -2.76507E+00 -2.68910E+00 -2.63822E+00 -2.61659E+00
  -2.62093E+00 -2.64438E+00 -2.67972E+00 -2.71218E+00 -2.72414E+00 -2.71255E+00 -2.72632E+00 -2.75124E+00 -2.67907E+00 -2.42932E+00
  -1.98816E+00 -1.40721E+00 -7.79072E-01 -2.10506E-01  2.00874E-01  3.82326E-01  2.96342E-01 -4.97394E-02 -6.07992E-01 -1.29431E+00
  -1.97341E+00 -2.47013E+00 -2.64001E+00 -2.59512E+00 -2.52427E+00 -2.45896E+00 -2.39835E+00 -2.34079E+00 -2.29083E+00 -2.26326E+00
  -2.28569E+00 -2.29469E+00 -2.18562E+00 -1.90036E+00 -1.44667E+00 -8.84466E-01 -3.03695E-01  1.95892E-01  5.26652E-01  6.26046E-01
   4.67371E-01  6.51489E-02 -5.23719E-01 -1.19996E+00 -1.82329E+00 -2.22698E+00 -2.31960E+00 -2.27618E+00 -2.22088E+00 -2.15830E+00
  -2.08394E+00 -1.99720E+00 -1.90234E+00 -1.81194E+00 -1.74027E+00 -1.69023E+00 -1.66010E+00 -1.64344E+00 -1.63002E+00 -1.61484E+00
  -1.59644E+00 -1.57571E+00 -1.55391E+00 -1.52865E+00 -1.49708E+00 -1.46128E+00 -1.43008E+00 -1.40945E+00 -1.40137E+00 -1.40109E+00
  -1.39936E+00 -1.38938E+00 -1.36801E+00 -1.33521E+00 -1.29274E+00 -1.24373E+00 -1.19365E+00 -1.14881E+00 -1.11552E+00 -1.09893E+00
  -1.10302E+00 -1.12301E+00 -1.14446E+00 -1.15534E+00 -1.14613E+00 -1.12402E+00 -1.09839E+00 -1.06887E+00 -1.03336E+00 -9.89578E-01
  -9.36932E-01 -8.81320E-01 -8.32827E-01 -7.95916E-01 -7.69264E-01 -7.45313E-01 -7.06431E-01 -6.35222E-01 -5.40831E-01 -4.40490E-01
  -3.48900E-01 -2.65744E-01 -1.89414E-01 -1.29876E-01 -9.82681E-02 -9.86822E-02 -1.25604E-01 -1.58957E-01 -1.76249E-01 -1.71990E-01
  -1.45370E-01 -1.01902E-01 -4.87611E-02  9.35403E-03  6.46938E-02  1.09099E-01  1.35281E-01  1.31599E-01  9.81410E-02  4.33916E-02
  -1.19047E-02 -4.44291E-02 -3.57541E-02  1.91153E-02  1.02235E-01  1.94158E-01  2.73546E-01  3.22374E-01  3.30537E-01  3.02642E-01
   2.55749E-01  2.07377E-01  1.76696E-01  1.91857E-01  2.66495E-01  3.83134E-01  5.02138E-01  6.02344E-01  6.73601E-01  7.10227E-01
   7.12653E-01  6.95363E-01  6.88950E-01  7.13878E-01  7.64416E-01  8.25538E-01  8.85666E-01  9.31052E-01  9.51030E-01  9.43304E-01
   9.17677E-01  8.94749E-01  8.92508E-01  9.18523E-01  9.74121E-01  1.05458E+00  1.14891E+00  1.23981E+00  1.31266E+00  1.36546E+00
   1.40367E+00  1.43145E+00  1.44506E+00  1.41749E+00  1.39457E+00  1.56473E+00  2.03442E+00  2.77879E+00  3.66588E+00  4.51811E+00
   5.15681E+00  5.43639E+00  5.27203E+00  4.64978E+00  3.63418E+00  2.36579E+00  1.04100E+00 -1.04944E-01 -8.17062E-01 -9.25593E-01
  -6.42260E-01 -3.81103E-01 -1.83475E-01 -2.33111E-02  1.10179E-01  2.23622E-01  3.20193E-01  3.99694E-01  4.62407E-01  5.10989E-01
   5.49945E-01  5.83882E-01  6.17478E-01  6.53170E-01  6.91532E-01  7.32410E-01  7.74274E-01  8.15175E-01  8.54024E-01  8.89986E-01
   9.22755E-01  9.52824E-01  9.80667E-01  1.00713E+00  1.03329E+00  1.05954E+00  1.08574E+00  1.11204E+00  1.13864E+00  1.16546E+00
   1.19225E+00  1.21906E+00  1.24579E+00  1.27238E+00  1.29892E+00  1.32552E+00  1.35225E+00  1.37921E+00  1.40647E+00  1.43411E+00
   1.46221E+00  1.49087E+00  1.52019E+00  1.55028E+00  1.58119E+00  1.61302E+00  1.64586E+00  1.67979E+00  1.71475E+00  1.75064E+00
   1.79185E+00  1.85727E+00  1.94840E+00  2.04397E+00  2.11632E+00  2.14362E+00  2.11498E+00  2.02845E+00  1.88498E+00  1.71277E+00
   1.56543E+00  1.49450E+00  1.53368E+00  1.69297E+00  1.95909E+00  2.29234E+00  2.61970E+00  2.85327E+00  2.98006E+00  3.01568E+00
   2.97428E+00  2.88481E+00  2.77812E+00  2.68935E+00  2.64965E+00  2.62424E+00  2.56792E+00  2.46921E+00  2.32935E+00  2.17009E+00
   2.02025E+00  1.90420E+00  1.83574E+00  1.81698E+00  1.83889E+00  1.87944E+00  1.90004E+00  1.85818E+00  1.75572E+00  1.60741E+00
   1.42551E+00  1.22598E+00  1.03142E+00  8.70046E-01  7.54379E-01  6.60847E-01  5.78165E-01  5.04950E-01  4.40992E-01  3.86129E-01
   3.40054E-01  3.02338E-01  2.72427E-01  2.49699E-01  2.33455E-01  2.22970E-01  2.17495E-01  2.16318E-01  2.18754E-01  2.24187E-01
   2.32035E-01  2.41782E-01  2.52950E-01  2.65138E-01  2.77988E-01  2.91204E-01  3.04508E-01  3.17661E-01  3.30433E-01  3.42637E-01
   3.54090E-01  3.64634E-01  3.74099E-01  3.82331E-01  3.89176E-01  3.94510E-01  3.98213E-01  4.00192E-01  4.00358E-01  3.98662E-01
   3.95077E-01  3.89631E-01  3.82376E-01  3.73415E-01  3.62866E-01  3.50899E-01  3.37708E-01  3.23527E-01  3.08590E-01  2.93147E-01
   2.77432E-01  2.61683E-01  2.46114E-01  2.30926E-01  2.16274E-01  2.02286E-01  1.89041E-01  1.76598E-01  1.64975E-01  1.54170E-01
   1.44137E-01  1.34818E-01  1.26126E-01  1.17984E-01  1.10295E-01  1.02973E-01  9.59116E-02  8.90246E-02  8.22214E-02  7.54366E-02
   6.86017E-02  6.16654E-02  5.45692E-02  4.72770E-02  3.97513E-02  3.19781E-02  2.39340E-02  1.56090E-02  6.98255E-03 -1.94727E-03
  -1.11873E-02 -2.07289E-02 -3.05774E-02 -4.07284E-02 -5.11895E-02 -6.19505E-02 -7.30105E-02 -8.43561E-02 -9.59911E-02 -1.07909E-01
  -1.20113E-01 -1.32592E-01 -1.45342E-01 -1.58354E-01 -1.71631E-01 -1.85166E-01 -1.98964E-01 -2.13011E-01 -2.27307E-01 -2.41842E-01
  -2.56623E-01 -2.71644E-01 -2.86906E-01 -3.02397E-01 -3.18118E-01 -3.34062E-01 -3.50236E-01 -3.66634E-01 -3.83255E-01 -4.00088E-01
  -4.17136E-01 -4.34394E-01 -4.51869E-01 -4.69552E-01 -4.87443E-01 -5.05533E-01 -5.23825E-01 -5.42316E-01 -5.61011E-01 -5.79901E-01
  -5.98985E-01 -6.18254E-01 -6.37716E-01 -6.57364E-01 -6.77203E-01 -6.97222E-01 -7.17422E-01 -7.37794E-01 -7.58345E-01 -7.79070E-01
  -7.99969E-01 -8.21032E-01 -8.42258E-01 -8.63641E-01 -8.85187E-01 -9.06885E-01 -9.28737E-01 -9.50727E-01
 NY background values follow
    -5.550E+00   -5.524E+00   -5.498E+00   -5.473E+00   -5.447E+00   -5.421E+00   -5.395E+00   -5.369E+00   -5.343E+00   -5.317E+00
    -5.291E+00   -5.265E+00   -5.239E+00   -5.213E+00   -5.187E+00   -5.160E+00   -5.134E+00   -5.108E+00   -5.081E+00   -5.055E+00
    -5.028E+00   -5.002E+00   -4.975E+00   -4.948E+00   -4.922E+00   -4.895E+00   -4.868E+00   -4.842E+00   -4.815E+00   -4.788E+00
    -4.761E+00   -4.734E+00   -4.708E+00   -4.681E+00   -4.654E+00   -4.627E+00   -4.600E+00   -4.573E+00   -4.546E+00   -4.519E+00
    -4.491E+00   -4.464E+00   -4.437E+00   -4.410E+00   -4.383E+00   -4.356E+00   -4.328E+00   -4.301E+00   -4.274E+00   -4.247E+00
    -4.219E+00   -4.192E+00   -4.165E+00   -4.137E+00   -4.110E+00   -4.083E+00   -4.055E+00   -4.028E+00   -4.001E+00   -3.973E+00
    -3.946E+00   -3.919E+00   -3.891E+00   -3.864E+00   -3.836E+00   -3.809E+00   -3.782E+00   -3.754E+00   -3.727E+00   -3.699E+00
    -3.672E+00   -3.645E+00   -3.617E+00   -3.590E+00   -3.562E+00   -3.535E+00   -3.508E+00   -3.480E+00   -3.453E+00   -3.426E+00
    -3.398E+00   -3.371E+00   -3.344E+00   -3.316E+00   -3.289E+00   -3.262E+00   -3.235E+00   -3.207E+00   -3.180E+00   -3.153E+00
    -3.126E+00   -3.099E+00   -3.072E+00   -3.044E+00   -3.017E+00   -2.990E+00   -2.963E+00   -2.936E+00   -2.909E+00   -2.882E+00
    -2.855E+00   -2.828E+00   -2.801E+00   -2.775E+00   -2.748E+00   -2.721E+00   -2.694E+00   -2.667E+00   -2.641E+00   -2.614E+00
    -2.587E+00   -2.561E+00   -2.534E+00   -2.508E+00   -2.481E+00   -2.455E+00   -2.428E+00   -2.402E+00   -2.376E+00   -2.349E+00
    -2.323E+00   -2.297E+00   -2.271E+00   -2.245E+00   -2.218E+00   -2.192E+00   -2.166E+00   -2.140E+00   -2.115E+00   -2.089E+00
    -2.063E+00   -2.037E+00   -2.012E+00   -1.986E+00   -1.960E+00   -1.935E+00   -1.909E+00   -1.884E+00   -1.859E+00   -1.833E+00
    -1.808E+00   -1.783E+00   -1.758E+00   -1.733E+00   -1.708E+00   -1.683E+00   -1.658E+00   -1.633E+00   -1.608E+00   -1.584E+00
    -1.559E+00   -1.534E+00   -1.510E+00   -1.485E+00   -1.461E+00   -1.437E+00   -1.413E+00   -1.388E+00   -1.364E+00   -1.340E+00
    -1.316E+00   -1.293E+00   -1.269E+00   -1.245E+00   -1.221E+00   -1.198E+00   -1.174E+00   -1.151E+00   -1.128E+00   -1.104E+00
    -1.081E+00   -1.058E+00   -1.035E+00   -1.012E+00   -9.893E-01   -9.665E-01   -9.438E-01   -9.212E-01   -8.987E-01   -8.763E-01
    -8.539E-01   -8.317E-01   -8.095E-01   -7.874E-01   -7.655E-01   -7.436E-01   -7.218E-01   -7.000E-01   -6.784E-01   -6.569E-01
    -6.354E-01   -6.141E-01   -5.928E-01   -5.717E-01   -5.506E-01   -5.297E-01   -5.088E-01   -4.880E-01   -4.674E-01   -4.468E-01
    -4.263E-01   -4.060E-01   -3.857E-01   -3.655E-01   -3.454E-01   -3.255E-01   -3.056E-01   -2.859E-01   -2.662E-01   -2.467E-01
    -2.272E-01   -2.079E-01   -1.887E-01   -1.696E-01   -1.505E-01   -1.316E-01   -1.129E-01   -9.418E-02   -7.561E-02   -5.715E-02
    -3.880E-02   -2.057E-02   -2.451E-03    1.556E-02    3.345E-02    5.122E-02    6.889E-02    8.643E-02    1.039E-01    1.212E-01
     1.384E-01    1.554E-01    1.724E-01    1.892E-01    2.059E-01    2.225E-01    2.390E-01    2.554E-01    2.716E-01    2.877E-01
     3.037E-01    3.195E-01    3.353E-01    3.509E-01    3.664E-01    3.817E-01    3.970E-01    4.121E-01    4.271E-01    4.419E-01
     4.566E-01    4.712E-01    4.857E-01    5.000E-01    5.142E-01    5.283E-01    5.422E-01    5.560E-01    5.697E-01    5.832E-01
     5.966E-01    6.099E-01    6.230E-01    6.360E-01    6.489E-01    6.616E-01    6.742E-01    6.867E-01    6.990E-01    7.112E-01
     7.232E-01    7.351E-01    7.469E-01    7.585E-01    7.700E-01    7.813E-01    7.925E-01    8.036E-01    8.145E-01    8.253E-01
     8.359E-01    8.464E-01    8.567E-01    8.669E-01    8.770E-01    8.869E-01    8.966E-01    9.063E-01    9.157E-01    9.251E-01
     9.342E-01    9.433E-01    9.521E-01    9.609E-01    9.695E-01    9.779E-01    9.862E-01    9.943E-01    1.002E+00    1.010E+00
     1.018E+00    1.025E+00    1.033E+00    1.040E+00    1.047E+00    1.054E+00    1.061E+00    1.067E+00    1.074E+00    1.080E+00
     1.086E+00    1.092E+00    1.098E+00    1.104E+00    1.109E+00    1.115E+00    1.120E+00    1.125E+00    1.130E+00    1.135E+00
     1.139E+00    1.144E+00    1.148E+00    1.152E+00    1.156E+00    1.160E+00    1.163E+00    1.167E+00    1.170E+00    1.173E+00
     1.176E+00    1.179E+00    1.182E+00    1.184E+00    1.187E+00    1.189E+00    1.191E+00    1.193E+00    1.195E+00    1.196E+00
     1.198E+00    1.199E+00    1.200E+00    1.201E+00    1.201E+00    1.202E+00    1.202E+00    1.203E+00    1.203E+00    1.203E+00
     1.202E+00    1.202E+00    1.201E+00    1.200E+00    1.200E+00    1.198E+00    1.197E+00    1.196E+00    1.194E+00    1.192E+00
     1.190E+00    1.188E+00    1.186E+00    1.184E+00    1.181E+00    1.178E+00    1.175E+00    1.172E+00    1.169E+00    1.166E+00
     1.162E+00    1.158E+00    1.154E+00    1.150E+00    1.146E+00    1.141E+00    1.137E+00    1.132E+00    1.127E+00    1.122E+00
     1.116E+00    1.111E+00    1.105E+00    1.100E+00    1.094E+00    1.087E+00    1.081E+00    1.075E+00    1.068E+00    1.061E+00
     1.054E+00    1.047E+00    1.040E+00    1.032E+00    1.024E+00    1.016E+00    1.008E+00    1.000E+00    9.918E-01    9.833E-01
     9.746E-01    9.657E-01    9.566E-01    9.474E-01    9.380E-01    9.284E-01    9.186E-01    9.087E-01    8.986E-01    8.884E-01
     8.779E-01    8.673E-01    8.566E-01    8.456E-01    8.345E-01    8.232E-01    8.117E-01    8.001E-01    7.883E-01    7.763E-01
     7.642E-01    7.519E-01    7.394E-01    7.267E-01    7.139E-01    7.009E-01    6.877E-01    6.744E-01    6.609E-01    6.472E-01
     6.334E-01    6.193E-01    6.052E-01    5.908E-01    5.763E-01    5.616E-01    5.467E-01    5.317E-01    5.164E-01    5.011E-01
     4.855E-01    4.698E-01    4.539E-01    4.379E-01    4.216E-01    4.052E-01    3.887E-01    3.719E-01    3.550E-01    3.380E-01
     3.207E-01    3.033E-01    2.858E-01    2.680E-01    2.501E-01    2.320E-01    2.138E-01    1.954E-01    1.768E-01    1.581E-01
     1.392E-01    1.201E-01    1.009E-01    8.147E-02    6.190E-02    4.216E-02    2.226E-02    2.199E-03   -1.803E-02   -3.842E-02
    -5.898E-02   -7.970E-02   -1.006E-01   -1.216E-01   -1.428E-01   -1.642E-01   -1.858E-01   -2.075E-01   -2.293E-01   -2.514E-01
    -2.735E-01   -2.959E-01   -3.184E-01   -3.411E-01   -3.639E-01   -3.869E-01   -4.100E-01   -4.334E-01   -4.568E-01   -4.805E-01
    -5.042E-01   -5.282E-01   -5.523E-01   -5.766E-01   -6.010E-01   -6.256E-01   -6.503E-01   -6.752E-01
 Ala      Conc. = 3.84E+01
