 LCModel (Version 6.3-1L) Copyright: S.W. Provencher.          Ref.: Magn. Reson. Med. 30:672-679 (1993).                
 Slice#1 Row#4 Col#10  K_02_press_1_raw_act
 36 lines in following concentration table = NCONC+1
    Conc.  %SD /Cr+PCr  Metabolite                                         
   33.829 788% 2.1E-02 Ala                                                 
    0.000 999%   0.000 Asp                                                 
 1.57E+03   5%   1.000 Cr                                                  
    0.000 999%   0.000 PCr                                                 
  131.314 173% 8.3E-02 GABA                                                
    0.000 999%   0.000 Glc                                                 
  153.885 326% 9.8E-02 Gln                                                 
    0.000 999%   0.000 Glu                                                 
  686.961   4%   0.436 GPC                                                 
    0.000 999%   0.000 PCh                                                 
  967.468  12%   0.615 GSH                                                 
 3.72E+03   9%   2.363 Ins                                                 
    0.000 999%   0.000 Lac                                                 
 2.26E+03  10%   1.433 NAA                                                 
  184.662 145%   0.117 NAAG                                                
  147.049  24% 9.3E-02 Scyllo                                              
    0.000 999%   0.000 Tau                                                 
    0.000 999%   0.000 -CrCH2                                              
  686.961   4%   0.436 GPC+PCh                                             
 2.44E+03   6%   1.550 NAA+NAAG                                            
 1.57E+03   5%   1.000 Cr+PCr                                              
  153.885 326% 9.8E-02 Glu+Gln                                             
    0.000 999%   0.000 Lip13a                                              
  529.979  27%   0.337 Lip13b                                              
  110.200 212% 7.0E-02 Lip09                                               
 2.50E+03  12%   1.585 MM09                                                
  132.806 128% 8.4E-02 Lip20                                               
 2.87E+03  15%   1.825 MM20                                                
 1.33E+03  16%   0.843 MM12                                                
    0.000 999%   0.000 MM14                                                
 1.63E+03  14%   1.033 MM17                                                
  529.979  27%   0.337 Lip13a+Lip13b                                       
 1.86E+03  11%   1.180 MM14+Lip13a+Lip13b+MM12                             
 2.61E+03   9%   1.655 MM09+Lip09                                          
 3.00E+03  14%   1.909 MM20+Lip20                                          
   6 lines in following misc. output table
  FWHM = 0.099 ppm    S/N =   8                                            
  Data shift = 0.054 ppm                                                   
  Ph:  12 deg       6.0 deg/ppm                                            
  alphaB,S = 2.1E+01,   1.1E+02                                            
   14 spline knots.   Ns =11(1)                                            
  (11) 6 infls.   ( 3) 1 extrs.                                            
  498 points on ppm-axis = NY
      4.000000     3.992357     3.984714     3.977070     3.969427     3.961784     3.954141     3.946497     3.938854     3.931211
      3.923568     3.915925     3.908281     3.900638     3.892995     3.885352     3.877708     3.870065     3.862422     3.854779
      3.847136     3.839492     3.831849     3.824206     3.816563     3.808919     3.801276     3.793633     3.785990     3.778347
      3.770703     3.763060     3.755417     3.747774     3.740130     3.732487     3.724844     3.717201     3.709558     3.701914
      3.694271     3.686628     3.678985     3.671341     3.663698     3.656055     3.648412     3.640769     3.633125     3.625482
      3.617839     3.610196     3.602552     3.594909     3.587266     3.579623     3.571980     3.564336     3.556693     3.549050
      3.541407     3.533763     3.526120     3.518477     3.510834     3.503191     3.495547     3.487904     3.480261     3.472618
      3.464974     3.457331     3.449688     3.442045     3.434402     3.426758     3.419115     3.411472     3.403829     3.396185
      3.388542     3.380899     3.373256     3.365613     3.357969     3.350326     3.342683     3.335040     3.327396     3.319753
      3.312110     3.304467     3.296824     3.289180     3.281537     3.273894     3.266251     3.258607     3.250964     3.243321
      3.235678     3.228034     3.220391     3.212748     3.205105     3.197462     3.189818     3.182175     3.174532     3.166889
      3.159245     3.151602     3.143959     3.136316     3.128673     3.121029     3.113386     3.105743     3.098100     3.090456
      3.082813     3.075170     3.067527     3.059884     3.052240     3.044597     3.036954     3.029311     3.021667     3.014024
      3.006381     2.998738     2.991095     2.983451     2.975808     2.968165     2.960522     2.952878     2.945235     2.937592
      2.929949     2.922306     2.914662     2.907019     2.899376     2.891733     2.884089     2.876446     2.868803     2.861160
      2.853517     2.845873     2.838230     2.830587     2.822944     2.815300     2.807657     2.800014     2.792371     2.784728
      2.777084     2.769441     2.761798     2.754155     2.746511     2.738868     2.731225     2.723582     2.715939     2.708295
      2.700652     2.693009     2.685366     2.677722     2.670079     2.662436     2.654793     2.647150     2.639506     2.631863
      2.624220     2.616577     2.608933     2.601290     2.593647     2.586004     2.578361     2.570717     2.563074     2.555431
      2.547788     2.540144     2.532501     2.524858     2.517215     2.509572     2.501928     2.494285     2.486642     2.478999
      2.471355     2.463712     2.456069     2.448426     2.440783     2.433139     2.425496     2.417853     2.410210     2.402566
      2.394923     2.387280     2.379637     2.371994     2.364350     2.356707     2.349064     2.341421     2.333777     2.326134
      2.318491     2.310848     2.303205     2.295561     2.287918     2.280275     2.272632     2.264988     2.257345     2.249702
      2.242059     2.234416     2.226772     2.219129     2.211486     2.203843     2.196199     2.188556     2.180913     2.173270
      2.165627     2.157983     2.150340     2.142697     2.135054     2.127410     2.119767     2.112124     2.104481     2.096838
      2.089194     2.081551     2.073908     2.066265     2.058621     2.050978     2.043335     2.035692     2.028049     2.020405
      2.012762     2.005119     1.997476     1.989833     1.982190     1.974546     1.966903     1.959260     1.951617     1.943974
      1.936331     1.928688     1.921045     1.913402     1.905759     1.898115     1.890472     1.882829     1.875186     1.867543
      1.859900     1.852257     1.844614     1.836971     1.829327     1.821684     1.814041     1.806398     1.798755     1.791112
      1.783469     1.775826     1.768183     1.760540     1.752896     1.745253     1.737610     1.729967     1.722324     1.714681
      1.707038     1.699395     1.691752     1.684108     1.676465     1.668822     1.661179     1.653536     1.645893     1.638250
      1.630607     1.622964     1.615321     1.607677     1.600034     1.592391     1.584748     1.577105     1.569462     1.561819
      1.554176     1.546533     1.538890     1.531246     1.523603     1.515960     1.508317     1.500674     1.493031     1.485388
      1.477745     1.470102     1.462458     1.454815     1.447172     1.439529     1.431886     1.424243     1.416600     1.408957
      1.401314     1.393671     1.386027     1.378384     1.370741     1.363098     1.355455     1.347812     1.340169     1.332526
      1.324883     1.317240     1.309596     1.301953     1.294310     1.286667     1.279024     1.271381     1.263738     1.256095
      1.248452     1.240808     1.233165     1.225522     1.217879     1.210236     1.202593     1.194950     1.187307     1.179664
      1.172021     1.164377     1.156734     1.149091     1.141448     1.133805     1.126162     1.118519     1.110876     1.103233
      1.095590     1.087946     1.080303     1.072660     1.065017     1.057374     1.049731     1.042088     1.034445     1.026802
      1.019158     1.011515     1.003872     0.996229     0.988586     0.980943     0.973300     0.965657     0.958014     0.950371
      0.942727     0.935084     0.927441     0.919798     0.912155     0.904512     0.896869     0.889226     0.881583     0.873940
      0.866296     0.858653     0.851010     0.843367     0.835724     0.828081     0.820438     0.812795     0.805152     0.797508
      0.789865     0.782222     0.774579     0.766936     0.759293     0.751650     0.744007     0.736364     0.728721     0.721077
      0.713434     0.705791     0.698148     0.690505     0.682862     0.675219     0.667576     0.659933     0.652290     0.644646
      0.637003     0.629360     0.621717     0.614074     0.606431     0.598788     0.591145     0.583502     0.575858     0.568215
      0.560572     0.552929     0.545286     0.537643     0.530000     0.522357     0.514714     0.507071     0.499427     0.491784
      0.484141     0.476498     0.468855     0.461212     0.453569     0.445925     0.438282     0.430639     0.422996     0.415353
      0.407710     0.400067     0.392424     0.384780     0.377137     0.369494     0.361851     0.354208     0.346565     0.338922
      0.331278     0.323635     0.315992     0.308349     0.300706     0.293063     0.285420     0.277777     0.270133     0.262490
      0.254847     0.247204     0.239561     0.231918     0.224275     0.216631     0.208988     0.201345
 NY phased data points follow
   1.31868E+01  1.25064E+01  1.46949E+01  1.84246E+01  1.75226E+01  2.35556E+01  2.37969E+01  3.36415E+01  2.93070E+01  2.50055E+01
   2.22148E+01  2.91427E+01  2.95648E+01  2.20339E+01  2.63007E+01  2.20927E+01  1.70761E+01  1.84317E+01  1.83523E+01  2.13707E+01
   1.39709E+01  1.46297E+01  1.76614E+01  1.47157E+01  1.35786E+01  1.24096E+01  1.96354E+01  1.32390E+01  1.65946E+01  1.72482E+01
   2.31044E+01  2.00441E+01  1.96670E+01  1.50271E+01  1.86045E+01  1.57214E+01  1.72237E+01  1.57443E+01  1.54149E+01  1.36522E+01
   1.62680E+01  2.22208E+01  2.00362E+01  2.53007E+01  1.95353E+01  2.78697E+01  2.07050E+01  1.87979E+01  2.19583E+01  2.14553E+01
   1.98272E+01  2.01845E+01  1.67523E+01  1.65415E+01  1.31727E+01  1.33572E+01  8.77646E+00  1.14813E+01  1.22901E+01  1.43231E+01
   1.15750E+01  1.31223E+01  1.14942E+01  1.22973E+01  9.76395E+00  7.25164E+00  6.49894E+00  8.15407E+00  6.27819E+00  7.72402E+00
   1.01143E+01  6.04553E+00  1.13021E+01  9.14983E+00  5.39969E+00  8.90762E+00  7.43068E+00  2.95969E+00  3.67890E+00  9.96589E+00
   5.52866E+00  2.24808E+00  4.86760E+00  5.54272E+00  6.24548E+00  1.53424E+00  5.59353E+00  8.12687E+00  1.30180E+01  9.05916E+00
   7.13226E+00  5.77790E+00  9.29790E+00  9.44939E+00  1.44599E+01  1.65526E+01  2.34778E+01  2.73290E+01  3.41200E+01  3.76012E+01
   3.67320E+01  3.51564E+01  4.07670E+01  4.00669E+01  3.66540E+01  3.14124E+01  2.86156E+01  2.24805E+01  1.79991E+01  1.73210E+01
   8.75570E+00  1.47334E+01  1.10930E+01  1.25614E+01  1.46862E+01  7.78775E+00  7.80236E+00  1.38903E+01  1.76477E+01  2.15555E+01
   2.26017E+01  2.24178E+01  3.00575E+01  2.79077E+01  3.39966E+01  3.51568E+01  3.85791E+01  3.09374E+01  3.51714E+01  3.35130E+01
   3.07442E+01  2.09642E+01  1.67751E+01  2.09435E+01  1.74746E+01  1.39502E+01  1.75647E+01  1.77145E+01  9.16012E+00  1.22852E+01
   1.01612E+01  6.06404E+00  9.14676E+00  9.74801E+00  8.00648E+00  8.40276E+00  8.06137E+00  8.63124E+00  1.21097E+01  6.11899E+00
   1.25519E+01  7.40349E+00  7.67978E+00  6.14875E+00  6.32886E+00  1.24587E+00  5.39173E+00  5.51753E+00  6.11759E+00  5.23675E+00
   3.51734E+00  4.95000E+00  7.31490E+00  5.31681E+00  2.22508E+00  4.69148E+00 -8.77851E-01 -1.78159E+00 -2.80094E+00 -7.01124E+00
  -4.78420E+00 -7.00892E+00 -3.26055E+00 -3.52698E+00 -3.28081E+00 -8.24776E+00 -9.95025E+00 -4.32280E+00 -7.00965E+00 -3.55770E+00
  -5.36723E+00 -3.90360E+00 -3.08936E+00 -1.93646E+00 -1.23507E+00 -8.78696E-01  2.24884E+00  3.36734E+00 -3.52001E+00 -1.94137E+00
  -3.79519E+00 -3.46222E+00 -8.80792E-01 -5.87240E-01  1.07492E-01 -2.46747E+00 -1.02065E+00 -8.99600E-01 -1.73970E+00 -4.42521E+00
   1.90906E+00  1.44943E+00  4.29204E+00  1.47525E+00  3.92912E-01  2.56008E+00  5.00363E+00  3.12409E+00  3.22200E+00  5.97239E-01
   6.69199E+00  1.96518E+00  1.99437E+00  5.57058E+00  8.04988E+00  1.06394E+01  3.03065E+00  2.29715E+00  6.89030E+00  3.31160E+00
   3.67267E+00  3.67462E+00  3.90571E+00  5.90009E-01  4.60548E+00  9.09399E+00  3.99457E+00  2.97239E+00  3.80321E+00  3.50784E+00
   7.35382E+00  7.22956E+00  2.04658E+00  5.09537E+00  8.65720E+00  5.09479E+00  5.28946E+00  6.93887E+00  2.08676E+00  8.34135E+00
   6.60167E+00  5.77902E+00  1.09855E+01  1.34084E+01  1.73079E+01  1.10496E+01  1.37869E+01  1.71465E+01  1.85998E+01  2.41655E+01
   2.42389E+01  2.40434E+01  4.03563E+01  4.29748E+01  5.05891E+01  4.72475E+01  5.06713E+01  5.73135E+01  5.84487E+01  6.17627E+01
   6.45515E+01  5.85674E+01  5.31149E+01  4.27579E+01  3.60328E+01  3.14526E+01  2.58095E+01  1.84387E+01  1.45518E+01  1.06327E+01
   5.73680E+00  8.05600E+00  7.12092E+00  1.23128E+00 -1.67986E+00 -1.29531E+00 -2.94567E-01  1.91472E+00  1.83834E-01 -3.18754E-01
   2.41730E+00 -3.02015E-01  1.84778E+00  4.91793E+00  7.39362E+00  2.12043E+00  7.38507E+00  5.16343E+00  6.06781E+00  6.84392E+00
   7.56396E+00  5.47689E+00  8.47675E+00  2.16920E+00  3.66458E+00  4.61603E+00  5.35132E+00  3.96415E+00  3.89772E+00  1.20332E+01
   6.75825E+00  7.95721E+00  1.04800E+01  1.22657E+01  1.21986E+01  9.55432E+00  7.19571E+00  1.51432E+01  9.56247E+00  1.29215E+01
   1.00621E+01  1.09363E+01  1.44072E+01  1.36833E+01  1.33482E+01  9.77817E+00  1.40808E+01  1.44886E+01  1.22420E+01  1.51589E+01
   1.28203E+01  8.49093E+00  7.06837E+00  1.09433E+01  1.39842E+01  7.27104E+00  2.58125E+00  3.18951E+00 -3.42949E-01 -4.93940E+00
  -3.39396E+00 -5.86360E+00 -1.05136E+00 -6.69176E+00 -1.49005E+00 -6.15044E+00 -6.03084E+00 -1.40071E+00 -1.62179E+00 -5.24665E+00
  -3.58573E+00 -4.25012E+00 -6.02152E+00 -8.42075E+00 -4.70271E-01 -3.66156E+00 -1.58512E+00  3.96439E+00  5.14260E+00  5.41423E+00
   1.84969E+00  8.98864E+00  5.23087E+00  6.74843E+00  9.04612E+00  1.04754E+01  1.27009E+01  1.31932E+01  1.19572E+01  1.28698E+01
   1.78787E+01  1.42548E+01  1.57321E+01  1.45321E+01  1.47892E+01  1.52946E+01  1.46038E+01  1.46135E+01  1.28569E+01  9.89575E+00
   9.89358E+00  1.09322E+01  7.00294E+00  1.28207E+01  1.17278E+01  1.49445E+01  1.12869E+01  1.16302E+01  1.12316E+01  1.34196E+01
   1.16704E+01  9.71913E+00  1.16659E+01  6.77355E+00  1.03447E+01  1.12271E+01  1.12513E+01  1.29188E+01  1.28421E+01  6.95241E+00
   1.02261E+01  1.39506E+01  1.42070E+01  1.25026E+01  1.50735E+01  1.65625E+01  1.72721E+01  1.63570E+01  1.55651E+01  1.78089E+01
   1.93108E+01  1.35397E+01  1.25831E+01  1.87646E+01  1.54897E+01  1.61783E+01  1.89261E+01  1.19440E+01  1.04440E+01  1.00252E+01
   1.58801E+01  1.45770E+01  1.27360E+01  1.11296E+01  1.38390E+01  1.06212E+01  7.26137E+00  9.17766E+00  1.10693E+01  9.77540E+00
   6.63035E+00  8.11915E+00  4.40143E+00  1.32140E+00  2.14733E+00 -1.65501E-01  5.54938E+00 -3.78895E-01  6.34178E+00  2.89421E+00
  -5.56070E-01  5.07882E+00  3.75286E+00  5.95188E+00  6.29625E+00  3.70290E+00  4.26925E+00  4.28537E+00  1.59056E+00  3.13336E+00
  -1.48349E-01  2.30386E+00  2.42709E+00 -2.62490E+00 -2.23719E+00 -2.04913E+00  2.15576E+00  7.08907E+00 -9.15850E-01  4.67634E+00
   4.08109E+00  8.42727E+00  2.09905E+00 -1.43848E+00  2.46285E+00  2.61617E+00 -5.17945E-01 -2.53428E-01  1.09960E-01  3.53001E-01
  -1.44299E+00  2.48598E+00  5.00384E-02  1.63748E+00  3.42854E+00  1.87925E+00  4.60532E+00 -2.36589E+00  1.27466E+00  2.62974E+00
   3.46209E+00  1.27340E+00  1.48284E+00 -1.87195E+00 -2.19990E+00  6.23379E-01  2.57929E+00  2.47423E+00 -2.10720E+00 -3.68584E-01
   1.16397E+00  1.08033E+00  7.58037E-01  1.36182E+00  4.27516E+00 -1.10991E+00 -8.35314E-01  1.12805E+00 -4.11359E+00  8.19402E-01
   3.33269E+00 -1.31352E+00 -3.80464E-01  4.03236E+00  2.56879E+00  3.56912E+00  6.82422E-02  4.54330E-01
 NY points of the fit to the data follow
   1.27880E+01  1.40350E+01  1.57180E+01  1.78643E+01  1.99823E+01  2.18864E+01  2.38007E+01  2.54287E+01  2.65828E+01  2.74998E+01
   2.82990E+01  2.86496E+01  2.80025E+01  2.61359E+01  2.34082E+01  2.04311E+01  1.77453E+01  1.54706E+01  1.36020E+01  1.28068E+01
   1.29648E+01  1.36864E+01  1.45461E+01  1.49751E+01  1.54952E+01  1.64305E+01  1.75461E+01  1.86922E+01  1.97594E+01  2.07542E+01
   2.13503E+01  2.11149E+01  1.99892E+01  1.81985E+01  1.62175E+01  1.47725E+01  1.43910E+01  1.48688E+01  1.57726E+01  1.69406E+01
   1.81385E+01  1.88952E+01  1.91144E+01  1.94352E+01  1.98672E+01  2.01738E+01  2.04209E+01  2.04945E+01  2.01129E+01  1.89311E+01
   1.71445E+01  1.54486E+01  1.42068E+01  1.34259E+01  1.28281E+01  1.23266E+01  1.21194E+01  1.21411E+01  1.20654E+01  1.16413E+01
   1.11697E+01  1.10014E+01  1.08647E+01  1.05948E+01  1.03088E+01  1.01467E+01  1.01433E+01  1.02695E+01  1.04847E+01  1.07488E+01
   1.09597E+01  1.09728E+01  1.08051E+01  1.04941E+01  1.00906E+01  9.72840E+00  9.53187E+00  9.32257E+00  8.98289E+00  8.54208E+00
   7.99976E+00  7.40477E+00  6.86361E+00  6.35470E+00  5.84302E+00  5.52772E+00  5.33526E+00  5.03989E+00  4.57534E+00  4.05167E+00
   3.70045E+00  4.28950E+00  7.31465E+00  1.13470E+01  1.56397E+01  2.03812E+01  2.48780E+01  2.86368E+01  3.16782E+01  3.40902E+01
   3.60017E+01  3.77105E+01  3.92557E+01  3.97286E+01  3.81213E+01  3.44047E+01  2.94269E+01  2.43841E+01  2.01700E+01  1.67257E+01
   1.36985E+01  1.13207E+01  9.85483E+00  8.96606E+00  7.64002E+00  6.16786E+00  7.36829E+00  1.04024E+01  1.39053E+01  1.78741E+01
   2.18332E+01  2.54193E+01  2.87060E+01  3.16706E+01  3.39804E+01  3.57618E+01  3.71739E+01  3.75671E+01  3.62188E+01  3.31538E+01
   2.90189E+01  2.48532E+01  2.13819E+01  1.85417E+01  1.59258E+01  1.36351E+01  1.19710E+01  1.08513E+01  9.62426E+00  8.05030E+00
   7.20795E+00  7.10674E+00  7.09025E+00  6.94005E+00  6.58475E+00  6.04680E+00  5.47579E+00  5.05269E+00  4.74323E+00  4.45257E+00
   4.11089E+00  3.72459E+00  3.30241E+00  2.89260E+00  2.55825E+00  2.30402E+00  2.10746E+00  1.94732E+00  1.77484E+00  1.54670E+00
   1.25852E+00  9.60179E-01  7.17220E-01  5.46321E-01  3.71488E-01  6.10719E-02 -3.45443E-01 -7.55941E-01 -1.15788E+00 -1.52190E+00
  -1.88472E+00 -2.21553E+00 -2.47346E+00 -2.64647E+00 -2.86254E+00 -3.16534E+00 -3.52756E+00 -3.75362E+00 -3.75683E+00 -3.60844E+00
  -3.32236E+00 -2.87712E+00 -2.26137E+00 -1.52252E+00 -7.50940E-01 -5.11747E-02  5.22536E-01  9.77668E-01  1.50133E+00  1.97994E+00
   2.29377E+00  2.48291E+00  2.60637E+00  2.66289E+00  2.59016E+00  2.48804E+00  2.41325E+00  2.42139E+00  2.58518E+00  2.88910E+00
   3.23594E+00  3.54630E+00  3.67582E+00  3.63608E+00  3.47108E+00  3.24708E+00  2.97437E+00  2.64266E+00  2.33230E+00  2.17414E+00
   2.15767E+00  2.11304E+00  2.10719E+00  2.24422E+00  2.50828E+00  2.82363E+00  3.18466E+00  3.58629E+00  3.96368E+00  4.28547E+00
   4.48347E+00  4.53729E+00  4.53778E+00  4.50617E+00  4.50495E+00  4.58733E+00  4.76562E+00  5.08070E+00  5.39751E+00  5.68018E+00
   5.91368E+00  6.06096E+00  6.17375E+00  6.33204E+00  6.57344E+00  6.89342E+00  7.22797E+00  7.54893E+00  7.81642E+00  8.00075E+00
   8.14747E+00  8.35011E+00  8.73830E+00  9.37510E+00  1.02236E+01  1.13048E+01  1.24992E+01  1.37586E+01  1.55483E+01  1.96951E+01
   2.50951E+01  3.06893E+01  3.67594E+01  4.25278E+01  4.74363E+01  5.16052E+01  5.49224E+01  5.69920E+01  5.81407E+01  5.89174E+01
   5.85985E+01  5.59713E+01  5.08210E+01  4.40598E+01  3.71593E+01  3.13698E+01  2.66514E+01  2.23152E+01  1.85781E+01  1.60503E+01
   1.44498E+01  1.23973E+01  9.30908E+00  7.19914E+00  6.36085E+00  5.80956E+00  5.34358E+00  4.92436E+00  4.53966E+00  4.18525E+00
   3.86200E+00  3.57970E+00  3.33858E+00  3.12890E+00  2.95364E+00  2.81677E+00  2.71547E+00  2.64764E+00  2.61456E+00  2.62416E+00
   2.68348E+00  2.79705E+00  2.97099E+00  3.21287E+00  3.52721E+00  3.91840E+00  4.39118E+00  4.94596E+00  5.58049E+00  6.29240E+00
   7.07296E+00  7.90781E+00  8.77938E+00  9.66428E+00  1.05343E+01  1.13633E+01  1.21247E+01  1.27899E+01  1.33334E+01  1.37341E+01
   1.39770E+01  1.40526E+01  1.39571E+01  1.36953E+01  1.32795E+01  1.27302E+01  1.20748E+01  1.13258E+01  1.04999E+01  9.62862E+00
   8.73382E+00  7.83669E+00  6.95953E+00  6.11869E+00  5.33837E+00  4.64050E+00  4.02241E+00  3.48123E+00  3.01163E+00  2.61078E+00
   2.28180E+00  2.02656E+00  1.83843E+00  1.70392E+00  1.61519E+00  1.56880E+00  1.55209E+00  1.54587E+00  1.53559E+00  1.52381E+00
   1.53250E+00  1.56934E+00  1.62849E+00  1.71765E+00  1.85478E+00  2.06228E+00  2.35915E+00  2.75955E+00  3.29339E+00  3.99738E+00
   4.88545E+00  5.95592E+00  7.18709E+00  8.53331E+00  9.92599E+00  1.12799E+01  1.25043E+01  1.35170E+01  1.42577E+01  1.46985E+01
   1.48467E+01  1.47420E+01  1.44460E+01  1.40298E+01  1.35607E+01  1.30923E+01  1.26591E+01  1.22759E+01  1.19416E+01  1.16448E+01
   1.13700E+01  1.11026E+01  1.08326E+01  1.05557E+01  1.02736E+01  9.99324E+00  9.72493E+00  9.48120E+00  9.27514E+00  9.11924E+00
   9.02463E+00  9.00043E+00  9.05352E+00  9.18820E+00  9.40613E+00  9.70627E+00  1.00851E+01  1.05366E+01  1.10525E+01  1.16225E+01
   1.22342E+01  1.28737E+01  1.35254E+01  1.41733E+01  1.48004E+01  1.53900E+01  1.59256E+01  1.63918E+01  1.67750E+01  1.70637E+01
   1.72487E+01  1.73240E+01  1.72864E+01  1.71362E+01  1.68766E+01  1.65138E+01  1.60567E+01  1.55161E+01  1.49045E+01  1.42352E+01
   1.35225E+01  1.27801E+01  1.20214E+01  1.12588E+01  1.05032E+01  9.76434E+00  9.05014E+00  8.36688E+00  7.71922E+00  7.11027E+00
   6.54181E+00  6.01451E+00  5.52803E+00  5.08126E+00  4.67243E+00  4.29938E+00  3.95971E+00  3.65092E+00  3.37043E+00  3.11570E+00
   2.88424E+00  2.67373E+00  2.48206E+00  2.30730E+00  2.14768E+00  2.00155E+00  1.86746E+00  1.74412E+00  1.63042E+00  1.52540E+00
   1.42814E+00  1.33783E+00  1.25374E+00  1.17530E+00  1.10199E+00  1.03334E+00  9.68905E-01  9.08271E-01  8.51102E-01  7.97129E-01
   7.46109E-01  6.97796E-01  6.51942E-01  6.08331E-01  5.66804E-01  5.27236E-01  4.89497E-01  4.53437E-01  4.18906E-01  3.85788E-01
   3.54011E-01  3.23514E-01  2.94212E-01  2.66000E-01  2.38786E-01  2.12514E-01  1.87158E-01  1.62681E-01  1.39017E-01  1.16087E-01
   9.38371E-02  7.22502E-02  5.13195E-02  3.10139E-02  1.12744E-02 -7.95484E-03 -2.66973E-02 -4.49484E-02 -6.27114E-02 -8.00205E-02
  -9.69280E-02 -1.13468E-01 -1.29641E-01 -1.45434E-01 -1.60853E-01 -1.75937E-01 -1.90728E-01 -2.05241E-01 -2.19457E-01 -2.33364E-01
  -2.46977E-01 -2.60333E-01 -2.73461E-01 -2.86352E-01 -2.98978E-01 -3.11326E-01 -3.23416E-01 -3.35275E-01
 NY background values follow
     1.512E+00    1.507E+00    1.502E+00    1.497E+00    1.492E+00    1.488E+00    1.483E+00    1.478E+00    1.473E+00    1.468E+00
     1.463E+00    1.458E+00    1.453E+00    1.448E+00    1.443E+00    1.438E+00    1.433E+00    1.428E+00    1.424E+00    1.419E+00
     1.414E+00    1.409E+00    1.404E+00    1.399E+00    1.394E+00    1.389E+00    1.384E+00    1.379E+00    1.374E+00    1.369E+00
     1.364E+00    1.360E+00    1.355E+00    1.350E+00    1.345E+00    1.340E+00    1.335E+00    1.330E+00    1.325E+00    1.320E+00
     1.315E+00    1.310E+00    1.305E+00    1.300E+00    1.296E+00    1.291E+00    1.286E+00    1.281E+00    1.276E+00    1.271E+00
     1.266E+00    1.261E+00    1.256E+00    1.251E+00    1.246E+00    1.241E+00    1.236E+00    1.232E+00    1.227E+00    1.222E+00
     1.217E+00    1.212E+00    1.207E+00    1.202E+00    1.197E+00    1.192E+00    1.187E+00    1.182E+00    1.177E+00    1.172E+00
     1.168E+00    1.163E+00    1.158E+00    1.153E+00    1.148E+00    1.143E+00    1.138E+00    1.133E+00    1.128E+00    1.123E+00
     1.118E+00    1.113E+00    1.109E+00    1.104E+00    1.099E+00    1.094E+00    1.089E+00    1.084E+00    1.079E+00    1.074E+00
     1.069E+00    1.064E+00    1.059E+00    1.054E+00    1.050E+00    1.045E+00    1.040E+00    1.035E+00    1.030E+00    1.025E+00
     1.020E+00    1.015E+00    1.010E+00    1.005E+00    1.000E+00    9.955E-01    9.906E-01    9.857E-01    9.808E-01    9.759E-01
     9.709E-01    9.660E-01    9.611E-01    9.562E-01    9.513E-01    9.464E-01    9.415E-01    9.366E-01    9.317E-01    9.268E-01
     9.219E-01    9.170E-01    9.121E-01    9.072E-01    9.023E-01    8.973E-01    8.924E-01    8.875E-01    8.826E-01    8.777E-01
     8.728E-01    8.679E-01    8.630E-01    8.581E-01    8.532E-01    8.483E-01    8.434E-01    8.385E-01    8.336E-01    8.287E-01
     8.238E-01    8.189E-01    8.140E-01    8.091E-01    8.042E-01    7.993E-01    7.944E-01    7.895E-01    7.847E-01    7.798E-01
     7.749E-01    7.700E-01    7.651E-01    7.602E-01    7.553E-01    7.504E-01    7.455E-01    7.406E-01    7.357E-01    7.309E-01
     7.260E-01    7.211E-01    7.162E-01    7.113E-01    7.064E-01    7.015E-01    6.967E-01    6.918E-01    6.869E-01    6.820E-01
     6.772E-01    6.723E-01    6.674E-01    6.625E-01    6.577E-01    6.528E-01    6.479E-01    6.431E-01    6.382E-01    6.333E-01
     6.285E-01    6.236E-01    6.187E-01    6.139E-01    6.090E-01    6.042E-01    5.993E-01    5.944E-01    5.896E-01    5.847E-01
     5.799E-01    5.750E-01    5.702E-01    5.653E-01    5.605E-01    5.557E-01    5.508E-01    5.460E-01    5.411E-01    5.363E-01
     5.315E-01    5.266E-01    5.218E-01    5.170E-01    5.121E-01    5.073E-01    5.025E-01    4.977E-01    4.928E-01    4.880E-01
     4.832E-01    4.784E-01    4.736E-01    4.688E-01    4.639E-01    4.591E-01    4.543E-01    4.495E-01    4.447E-01    4.399E-01
     4.351E-01    4.303E-01    4.255E-01    4.207E-01    4.159E-01    4.111E-01    4.063E-01    4.016E-01    3.968E-01    3.920E-01
     3.872E-01    3.824E-01    3.776E-01    3.729E-01    3.681E-01    3.633E-01    3.586E-01    3.538E-01    3.490E-01    3.443E-01
     3.395E-01    3.347E-01    3.300E-01    3.252E-01    3.205E-01    3.157E-01    3.110E-01    3.062E-01    3.015E-01    2.967E-01
     2.920E-01    2.872E-01    2.825E-01    2.778E-01    2.730E-01    2.683E-01    2.636E-01    2.588E-01    2.541E-01    2.494E-01
     2.447E-01    2.400E-01    2.352E-01    2.305E-01    2.258E-01    2.211E-01    2.164E-01    2.117E-01    2.070E-01    2.023E-01
     1.976E-01    1.929E-01    1.882E-01    1.835E-01    1.788E-01    1.741E-01    1.695E-01    1.648E-01    1.601E-01    1.554E-01
     1.507E-01    1.461E-01    1.414E-01    1.367E-01    1.321E-01    1.274E-01    1.227E-01    1.181E-01    1.134E-01    1.088E-01
     1.041E-01    9.946E-02    9.482E-02    9.017E-02    8.553E-02    8.089E-02    7.625E-02    7.161E-02    6.698E-02    6.235E-02
     5.772E-02    5.309E-02    4.847E-02    4.384E-02    3.922E-02    3.461E-02    2.999E-02    2.538E-02    2.077E-02    1.616E-02
     1.155E-02    6.950E-03    2.349E-03   -2.249E-03   -6.846E-03   -1.144E-02   -1.603E-02   -2.062E-02   -2.521E-02   -2.979E-02
    -3.437E-02   -3.895E-02   -4.353E-02   -4.811E-02   -5.268E-02   -5.725E-02   -6.182E-02   -6.639E-02   -7.095E-02   -7.551E-02
    -8.007E-02   -8.463E-02   -8.918E-02   -9.373E-02   -9.829E-02   -1.028E-01   -1.074E-01   -1.119E-01   -1.165E-01   -1.210E-01
    -1.255E-01   -1.301E-01   -1.346E-01   -1.391E-01   -1.437E-01   -1.482E-01   -1.527E-01   -1.572E-01   -1.618E-01   -1.663E-01
    -1.708E-01   -1.753E-01   -1.798E-01   -1.843E-01   -1.888E-01   -1.934E-01   -1.979E-01   -2.024E-01   -2.069E-01   -2.114E-01
    -2.159E-01   -2.204E-01   -2.248E-01   -2.293E-01   -2.338E-01   -2.383E-01   -2.428E-01   -2.473E-01   -2.518E-01   -2.562E-01
    -2.607E-01   -2.652E-01   -2.697E-01   -2.741E-01   -2.786E-01   -2.831E-01   -2.876E-01   -2.920E-01   -2.965E-01   -3.010E-01
    -3.054E-01   -3.099E-01   -3.143E-01   -3.188E-01   -3.232E-01   -3.277E-01   -3.322E-01   -3.366E-01   -3.411E-01   -3.455E-01
    -3.500E-01   -3.544E-01   -3.588E-01   -3.633E-01   -3.677E-01   -3.722E-01   -3.766E-01   -3.810E-01   -3.855E-01   -3.899E-01
    -3.944E-01   -3.988E-01   -4.032E-01   -4.077E-01   -4.121E-01   -4.165E-01   -4.209E-01   -4.254E-01   -4.298E-01   -4.342E-01
    -4.386E-01   -4.431E-01   -4.475E-01   -4.519E-01   -4.563E-01   -4.608E-01   -4.652E-01   -4.696E-01   -4.740E-01   -4.784E-01
    -4.828E-01   -4.873E-01   -4.917E-01   -4.961E-01   -5.005E-01   -5.049E-01   -5.093E-01   -5.137E-01   -5.182E-01   -5.226E-01
    -5.270E-01   -5.314E-01   -5.358E-01   -5.402E-01   -5.446E-01   -5.490E-01   -5.534E-01   -5.578E-01   -5.622E-01   -5.666E-01
    -5.710E-01   -5.754E-01   -5.798E-01   -5.842E-01   -5.886E-01   -5.931E-01   -5.975E-01   -6.019E-01   -6.063E-01   -6.107E-01
    -6.151E-01   -6.195E-01   -6.239E-01   -6.283E-01   -6.327E-01   -6.371E-01   -6.415E-01   -6.459E-01   -6.502E-01   -6.546E-01
    -6.590E-01   -6.634E-01   -6.678E-01   -6.722E-01   -6.766E-01   -6.810E-01   -6.854E-01   -6.898E-01   -6.942E-01   -6.986E-01
    -7.030E-01   -7.074E-01   -7.118E-01   -7.162E-01   -7.206E-01   -7.250E-01   -7.294E-01   -7.338E-01   -7.382E-01   -7.426E-01
    -7.470E-01   -7.514E-01   -7.558E-01   -7.602E-01   -7.646E-01   -7.689E-01   -7.733E-01   -7.777E-01   -7.821E-01   -7.865E-01
    -7.909E-01   -7.953E-01   -7.997E-01   -8.041E-01   -8.085E-01   -8.129E-01   -8.173E-01   -8.217E-01
 Ala      Conc. = 3.38E+01
