 LCModel (Version 6.3-1L) Copyright: S.W. Provencher.          Ref.: Magn. Reson. Med. 30:672-679 (1993).                
 Slice#3 Row#10 Col#12  K_02_press_1_raw_act
 36 lines in following concentration table = NCONC+1
    Conc.  %SD /Cr+PCr  Metabolite                                         
    0.000 999%   0.000 Ala                                                 
    0.000 999%   0.000 Asp                                                 
    0.000 999%   0.000 Cr                                                  
  577.758   6%   1.000 PCr                                                 
    0.000 999%   0.000 GABA                                                
   63.449 118%   0.110 Glc                                                 
  270.823  49%   0.469 Gln                                                 
  616.618  24%   1.067 Glu                                                 
   95.795  13%   0.166 GPC                                                 
    0.000 999%   0.000 PCh                                                 
   44.780  97% 7.8E-02 GSH                                                 
  248.699  58%   0.430 Ins                                                 
    0.000 999%   0.000 Lac                                                 
 1.33E+03   9%   2.293 NAA                                                 
  266.688  46%   0.462 NAAG                                                
    3.563 416% 6.2E-03 Scyllo                                              
  151.618  71%   0.262 Tau                                                 
  489.169  12%   0.847 -CrCH2                                              
   95.795  13%   0.166 GPC+PCh                                             
 1.59E+03   4%   2.755 NAA+NAAG                                            
  577.758   6%   1.000 Cr+PCr                                              
  887.441  24%   1.536 Glu+Gln                                             
 2.35E+03  25%   4.064 Lip13a                                              
  119.200 114%   0.206 Lip13b                                              
  731.676  31%   1.266 Lip09                                               
  975.510  24%   1.688 MM09                                                
  565.284  27%   0.978 Lip20                                               
 2.27E+03  11%   3.928 MM20                                                
  272.644  85%   0.472 MM12                                                
 1.44E+03  14%   2.500 MM14                                                
    0.000 999%   0.000 MM17                                                
 2.47E+03  22%   4.270 Lip13a+Lip13b                                       
 4.18E+03   8%   7.242 MM14+Lip13a+Lip13b+MM12                             
 1.71E+03  10%   2.955 MM09+Lip09                                          
 2.83E+03   9%   4.907 MM20+Lip20                                          
   6 lines in following misc. output table
  FWHM = 0.046 ppm    S/N =  14                                            
  Data shift = 0.015 ppm                                                   
  Ph:  49 deg      11.5 deg/ppm                                            
  alphaB,S = 1.0E+00,   9.1E+01                                            
   14 spline knots.   Ns = 7(1)                                            
  ( 9) 2 infls.   ( 1) 1 extrs.                                            
  498 points on ppm-axis = NY
      4.000000     3.992357     3.984714     3.977070     3.969427     3.961784     3.954141     3.946497     3.938854     3.931211
      3.923568     3.915925     3.908281     3.900638     3.892995     3.885352     3.877708     3.870065     3.862422     3.854779
      3.847136     3.839492     3.831849     3.824206     3.816563     3.808919     3.801276     3.793633     3.785990     3.778347
      3.770703     3.763060     3.755417     3.747774     3.740130     3.732487     3.724844     3.717201     3.709558     3.701914
      3.694271     3.686628     3.678985     3.671341     3.663698     3.656055     3.648412     3.640769     3.633125     3.625482
      3.617839     3.610196     3.602552     3.594909     3.587266     3.579623     3.571980     3.564336     3.556693     3.549050
      3.541407     3.533763     3.526120     3.518477     3.510834     3.503191     3.495547     3.487904     3.480261     3.472618
      3.464974     3.457331     3.449688     3.442045     3.434402     3.426758     3.419115     3.411472     3.403829     3.396185
      3.388542     3.380899     3.373256     3.365613     3.357969     3.350326     3.342683     3.335040     3.327396     3.319753
      3.312110     3.304467     3.296824     3.289180     3.281537     3.273894     3.266251     3.258607     3.250964     3.243321
      3.235678     3.228034     3.220391     3.212748     3.205105     3.197462     3.189818     3.182175     3.174532     3.166889
      3.159245     3.151602     3.143959     3.136316     3.128673     3.121029     3.113386     3.105743     3.098100     3.090456
      3.082813     3.075170     3.067527     3.059884     3.052240     3.044597     3.036954     3.029311     3.021667     3.014024
      3.006381     2.998738     2.991095     2.983451     2.975808     2.968165     2.960522     2.952878     2.945235     2.937592
      2.929949     2.922306     2.914662     2.907019     2.899376     2.891733     2.884089     2.876446     2.868803     2.861160
      2.853517     2.845873     2.838230     2.830587     2.822944     2.815300     2.807657     2.800014     2.792371     2.784728
      2.777084     2.769441     2.761798     2.754155     2.746511     2.738868     2.731225     2.723582     2.715939     2.708295
      2.700652     2.693009     2.685366     2.677722     2.670079     2.662436     2.654793     2.647150     2.639506     2.631863
      2.624220     2.616577     2.608933     2.601290     2.593647     2.586004     2.578361     2.570717     2.563074     2.555431
      2.547788     2.540144     2.532501     2.524858     2.517215     2.509572     2.501928     2.494285     2.486642     2.478999
      2.471355     2.463712     2.456069     2.448426     2.440783     2.433139     2.425496     2.417853     2.410210     2.402566
      2.394923     2.387280     2.379637     2.371994     2.364350     2.356707     2.349064     2.341421     2.333777     2.326134
      2.318491     2.310848     2.303205     2.295561     2.287918     2.280275     2.272632     2.264988     2.257345     2.249702
      2.242059     2.234416     2.226772     2.219129     2.211486     2.203843     2.196199     2.188556     2.180913     2.173270
      2.165627     2.157983     2.150340     2.142697     2.135054     2.127410     2.119767     2.112124     2.104481     2.096838
      2.089194     2.081551     2.073908     2.066265     2.058621     2.050978     2.043335     2.035692     2.028049     2.020405
      2.012762     2.005119     1.997476     1.989833     1.982190     1.974546     1.966903     1.959260     1.951617     1.943974
      1.936331     1.928688     1.921045     1.913402     1.905759     1.898115     1.890472     1.882829     1.875186     1.867543
      1.859900     1.852257     1.844614     1.836971     1.829327     1.821684     1.814041     1.806398     1.798755     1.791112
      1.783469     1.775826     1.768183     1.760540     1.752896     1.745253     1.737610     1.729967     1.722324     1.714681
      1.707038     1.699395     1.691752     1.684108     1.676465     1.668822     1.661179     1.653536     1.645893     1.638250
      1.630607     1.622964     1.615321     1.607677     1.600034     1.592391     1.584748     1.577105     1.569462     1.561819
      1.554176     1.546533     1.538890     1.531246     1.523603     1.515960     1.508317     1.500674     1.493031     1.485388
      1.477745     1.470102     1.462458     1.454815     1.447172     1.439529     1.431886     1.424243     1.416600     1.408957
      1.401314     1.393671     1.386027     1.378384     1.370741     1.363098     1.355455     1.347812     1.340169     1.332526
      1.324883     1.317240     1.309596     1.301953     1.294310     1.286667     1.279024     1.271381     1.263738     1.256095
      1.248452     1.240808     1.233165     1.225522     1.217879     1.210236     1.202593     1.194950     1.187307     1.179664
      1.172021     1.164377     1.156734     1.149091     1.141448     1.133805     1.126162     1.118519     1.110876     1.103233
      1.095590     1.087946     1.080303     1.072660     1.065017     1.057374     1.049731     1.042088     1.034445     1.026802
      1.019158     1.011515     1.003872     0.996229     0.988586     0.980943     0.973300     0.965657     0.958014     0.950371
      0.942727     0.935084     0.927441     0.919798     0.912155     0.904512     0.896869     0.889226     0.881583     0.873940
      0.866296     0.858653     0.851010     0.843367     0.835724     0.828081     0.820438     0.812795     0.805152     0.797508
      0.789865     0.782222     0.774579     0.766936     0.759293     0.751650     0.744007     0.736364     0.728721     0.721077
      0.713434     0.705791     0.698148     0.690505     0.682862     0.675219     0.667576     0.659933     0.652290     0.644646
      0.637003     0.629360     0.621717     0.614074     0.606431     0.598788     0.591145     0.583502     0.575858     0.568215
      0.560572     0.552929     0.545286     0.537643     0.530000     0.522357     0.514714     0.507071     0.499427     0.491784
      0.484141     0.476498     0.468855     0.461212     0.453569     0.445925     0.438282     0.430639     0.422996     0.415353
      0.407710     0.400067     0.392424     0.384780     0.377137     0.369494     0.361851     0.354208     0.346565     0.338922
      0.331278     0.323635     0.315992     0.308349     0.300706     0.293063     0.285420     0.277777     0.270133     0.262490
      0.254847     0.247204     0.239561     0.231918     0.224275     0.216631     0.208988     0.201345
 NY phased data points follow
   1.06563E+01  8.80156E+00  1.18286E+01  1.07529E+01  8.76385E+00  8.57692E+00  7.32780E+00  9.01954E+00  9.89372E+00  9.40327E+00
   8.52901E+00  9.83433E+00  1.16808E+01  8.34896E+00  8.46423E+00  8.68843E+00  8.17091E+00  9.23926E+00  9.11923E+00  7.76233E+00
   8.05144E+00  8.85747E+00  1.09578E+01  8.00914E+00  8.99743E+00  1.05623E+01  8.89949E+00  5.64636E+00  1.11506E+01  7.93561E+00
   7.75974E+00  5.98737E+00  6.40446E+00  6.99005E+00  6.36309E+00  5.07050E+00  7.19067E+00  6.05246E+00  5.76608E+00  8.19343E+00
   6.82507E+00  7.64880E+00  6.32378E+00  7.20482E+00  8.63223E+00  9.88016E+00  6.77881E+00  8.50759E+00  1.04658E+01  8.58800E+00
   1.00188E+01  8.49423E+00  9.15445E+00  9.80384E+00  8.83244E+00  7.90969E+00  9.42632E+00  8.44514E+00  7.78372E+00  1.08804E+01
   5.79345E+00  6.55390E+00  4.93164E+00  6.71459E+00  7.73611E+00  4.50062E+00  5.79813E+00  2.42830E+00  5.17880E+00  4.25627E+00
   7.44029E+00  5.94047E+00  4.91920E+00  7.39432E+00  5.39206E+00  5.87753E+00  5.39005E+00  8.37423E+00  5.29748E+00  6.27064E+00
   5.54529E+00  3.91159E+00  7.48316E+00  4.20109E+00  2.95634E+00  8.37208E+00  3.16903E+00  4.77451E+00  1.69716E+00  7.20754E+00
   4.29937E+00  3.89471E+00  3.60238E+00  4.76352E+00  8.09626E+00  4.70042E+00  6.08061E+00  6.85538E+00  5.84988E+00  8.74328E+00
   5.01394E+00  1.03229E+01  1.09849E+01  1.26785E+01  1.28935E+01  1.25577E+01  1.12737E+01  1.24109E+01  1.09844E+01  1.12127E+01
   8.46203E+00  7.40666E+00  8.78152E+00  8.34672E+00  4.91901E+00  2.12336E+00  3.65148E+00  5.12229E+00  5.73094E+00  4.62926E+00
   7.61488E+00  5.11376E+00  6.03649E+00  5.40289E+00  9.68941E+00  1.19891E+01  1.86238E+01  2.03193E+01  2.41750E+01  2.28866E+01
   2.33272E+01  2.08334E+01  1.60627E+01  1.59546E+01  1.23534E+01  1.09732E+01  8.92920E+00  9.38130E+00  7.60810E+00  9.60771E+00
   7.50060E+00  8.85380E+00  8.74595E+00  8.38591E+00  5.27354E+00  5.43107E+00  3.64487E+00  6.56165E+00  3.36816E+00  4.94642E+00
   4.44877E+00  2.80687E+00  5.47071E+00  4.40943E+00  3.09644E+00  3.25912E+00  4.90404E+00  2.30066E+00  4.16030E+00  2.99859E+00
   3.19616E+00  2.31316E+00  7.92830E-01  2.85556E+00  3.08315E+00  3.43809E+00  2.28535E+00  2.17611E+00 -4.97247E-01 -1.06179E+00
  -2.38935E+00  3.12944E-01 -2.15609E+00 -2.92197E+00 -2.94059E+00 -4.81467E+00 -4.38225E+00 -3.17928E+00 -5.58960E+00 -6.88878E+00
  -3.98945E+00 -5.46227E+00 -1.30182E+00 -2.41603E+00 -2.33941E+00 -4.18266E+00 -3.97280E+00 -3.17008E+00 -2.83665E+00 -3.03901E+00
  -1.23424E+00 -3.45210E+00  4.26502E+00  1.05424E+00  3.59785E-01  2.34551E+00 -1.05575E+00 -4.17229E+00 -2.17517E+00 -1.58016E+00
  -3.56660E+00 -4.05564E-01 -9.46864E-01  1.65806E+00  1.48925E+00  1.49204E+00  5.97082E+00  7.70878E-01  8.15296E-01 -1.55782E+00
  -1.00598E+00  1.91654E-01  3.28689E+00  7.97287E+00  7.38815E+00  8.10813E+00  8.82735E+00  1.13310E+01  7.73929E+00  7.24451E+00
   3.45762E+00  2.27437E+00  2.12348E+00 -2.21088E-01  1.66056E+00  1.25728E+00  6.08396E+00  5.81917E+00  5.16915E+00  5.55217E+00
   4.37252E+00  3.82529E+00  4.06447E+00  5.14578E+00  7.31620E+00  5.23426E+00  8.80551E+00  7.04991E+00  7.88711E+00  7.11123E+00
   5.48632E+00  5.84170E+00  4.24202E+00  2.74276E+00  6.76782E+00  7.04457E+00  8.93084E+00  9.42224E+00  7.83829E+00  9.80263E+00
   1.18924E+01  1.42906E+01  1.76612E+01  1.73721E+01  2.16699E+01  2.66861E+01  2.96815E+01  3.70512E+01  4.76015E+01  5.92981E+01
   6.32216E+01  5.76805E+01  5.00178E+01  3.99837E+01  3.27938E+01  2.37998E+01  1.51714E+01  1.05589E+01  8.12399E+00  3.64906E+00
   5.35890E+00  2.69546E+00  2.90295E+00  3.55776E+00  2.48525E+00  1.74341E+00  1.67903E+00  2.80358E+00  1.03042E-01 -1.11177E+00
   1.35998E+00 -5.20470E-01 -2.05956E+00  1.85784E+00  1.48293E+00  1.37543E+00 -1.82310E+00 -1.01421E+00  1.54319E-01 -1.36016E+00
   1.07568E+00  3.98244E-01 -1.01754E+00 -2.13945E+00 -1.27055E+00  3.24348E-01 -2.35626E+00 -1.28312E+00  2.63562E-01 -2.41274E+00
  -3.02677E+00  1.95281E+00 -1.44133E+00 -5.06306E+00 -2.34217E+00  3.87892E-02 -2.10593E+00 -4.47125E-01  1.25776E+00  3.63219E+00
   1.58393E+00  2.25880E+00  1.78719E-01  2.88546E+00 -4.77694E-02  3.90148E-01 -5.58662E-01  2.04914E+00 -2.26098E+00 -1.88633E+00
  -6.98958E-01 -2.59452E-03  1.69794E+00 -9.96426E-01  2.69605E+00  7.74384E-01  3.84481E+00  2.88192E+00  3.80548E+00  5.24826E+00
   6.30833E+00  6.66891E+00  1.03656E+01  1.09204E+01  9.97231E+00  1.35358E+01  1.53085E+01  1.53179E+01  1.54814E+01  1.45088E+01
   1.27575E+01  1.62848E+01  1.43716E+01  1.65337E+01  1.74720E+01  1.55038E+01  1.78057E+01  1.82604E+01  1.77987E+01  1.50605E+01
   1.93792E+01  1.68869E+01  1.74810E+01  1.67933E+01  1.53237E+01  1.84886E+01  1.63808E+01  1.53714E+01  1.36734E+01  1.42489E+01
   1.21322E+01  1.13862E+01  1.03889E+01  1.01923E+01  1.09383E+01  1.16766E+01  1.07246E+01  7.07071E+00  1.00298E+01  8.62529E+00
   9.22714E+00  1.01120E+01  4.74842E+00  8.58386E+00  6.11493E+00  9.03869E+00  6.58006E+00  7.81216E+00  5.84501E+00  7.17553E+00
   5.73089E+00  9.58405E+00  5.88560E+00  6.74384E+00  5.15655E+00  6.97680E+00  6.93564E+00  7.42120E+00  5.71741E+00  8.14116E+00
   9.34903E+00  1.06319E+01  8.14910E+00  8.16537E+00  1.13603E+01  7.45434E+00  9.45148E+00  1.08984E+01  1.21281E+01  1.20582E+01
   1.17224E+01  1.23479E+01  1.07346E+01  9.97369E+00  1.09819E+01  1.19507E+01  1.09161E+01  1.32055E+01  1.07278E+01  1.12828E+01
   9.32925E+00  1.05514E+01  1.13691E+01  8.11034E+00  6.93634E+00  8.03479E+00  1.10136E+01  7.19106E+00  9.18181E+00  4.65763E+00
   6.31221E+00  5.87982E+00  6.59320E+00  6.76794E+00  4.80094E+00  6.11447E+00  6.26461E+00  7.92068E+00  5.02228E+00  7.28393E+00
   5.33783E+00  6.69933E+00  6.23139E+00  6.22902E+00  5.37478E+00  2.98525E+00  4.16877E+00  6.23612E+00  5.66110E+00  5.72766E+00
   4.72769E+00  6.24839E+00  5.80490E+00  3.87983E+00  3.41515E+00  5.54463E+00  6.53355E+00  5.24583E+00  6.28819E+00  4.46311E+00
   3.38243E+00  5.84450E+00  7.04881E+00  6.15507E+00  2.14233E+00  5.02286E+00  4.84655E+00  2.70473E+00  5.57924E+00  1.22183E+00
   6.94998E+00  2.02249E+00  3.65331E+00  2.98072E+00  3.56041E+00  3.55375E+00  4.89531E+00  3.67107E+00  1.82095E+00  2.21324E+00
   4.55593E+00  6.19188E+00  3.25249E+00  4.53615E+00  5.30713E+00  2.32864E+00  1.37002E+00  2.18060E+00  1.81178E+00  6.24640E+00
   4.41544E+00  3.53164E+00  4.53196E+00  2.44371E+00  5.79984E+00  3.31066E+00  5.22387E+00  3.61434E+00  3.27323E+00  3.99809E+00
   5.03281E-01  4.76701E+00  3.19958E+00  5.33664E+00  5.15274E+00  2.85892E+00  5.38579E+00  5.39296E+00
 NY points of the fit to the data follow
   8.85530E+00  8.68455E+00  8.55791E+00  8.46672E+00  8.46129E+00  8.47100E+00  8.44080E+00  8.43354E+00  8.64441E+00  9.18680E+00
   9.90105E+00  1.04487E+01  1.06247E+01  1.04869E+01  1.02003E+01  9.87358E+00  9.51756E+00  9.16712E+00  8.84839E+00  8.59577E+00
   8.52818E+00  8.51907E+00  8.50578E+00  8.46079E+00  8.34783E+00  8.15105E+00  7.91296E+00  7.76084E+00  7.84315E+00  8.21462E+00
   8.79140E+00  9.39043E+00  9.80619E+00  9.89636E+00  9.61261E+00  9.01859E+00  8.30331E+00  7.65265E+00  7.20626E+00  7.00948E+00
   7.01389E+00  7.15954E+00  7.38361E+00  7.65557E+00  7.98327E+00  8.35556E+00  8.71444E+00  8.94072E+00  8.92475E+00  8.67743E+00
   8.29026E+00  7.85123E+00  7.42733E+00  7.06137E+00  6.77386E+00  6.58160E+00  6.50309E+00  6.53956E+00  6.65317E+00  6.78358E+00
   6.87242E+00  6.87395E+00  6.79052E+00  6.65734E+00  6.51790E+00  6.40442E+00  6.32013E+00  6.25198E+00  6.20768E+00  6.20414E+00
   6.24317E+00  6.32752E+00  6.45320E+00  6.60500E+00  6.73751E+00  6.78123E+00  6.68111E+00  6.43981E+00  6.13519E+00  5.85470E+00
   5.64811E+00  5.52554E+00  5.45726E+00  5.40126E+00  5.33296E+00  5.23046E+00  5.06961E+00  4.87219E+00  4.69498E+00  4.58048E+00
   4.52670E+00  4.50060E+00  4.47225E+00  4.43910E+00  4.44205E+00  4.53381E+00  4.75806E+00  5.15816E+00  5.67554E+00  6.38068E+00
   7.51941E+00  9.27754E+00  1.14049E+01  1.32071E+01  1.40148E+01  1.36841E+01  1.25705E+01  1.11220E+01  9.60952E+00  8.13843E+00
   6.83258E+00  5.81380E+00  5.15100E+00  4.87575E+00  4.78396E+00  4.74740E+00  4.73808E+00  4.75443E+00  4.79523E+00  4.87344E+00
   5.05028E+00  5.50769E+00  6.30595E+00  7.54313E+00  9.62617E+00  1.29678E+01  1.73411E+01  2.15568E+01  2.41023E+01  2.42528E+01
   2.24429E+01  1.96068E+01  1.64430E+01  1.32712E+01  1.03284E+01  7.88700E+00  6.13331E+00  5.21789E+00  4.87872E+00  4.73118E+00
   4.65607E+00  4.60496E+00  4.55155E+00  4.48413E+00  4.39833E+00  4.29905E+00  4.19350E+00  4.08446E+00  3.97656E+00  3.87250E+00
   3.76757E+00  3.65612E+00  3.53736E+00  3.41655E+00  3.30779E+00  3.23329E+00  3.16435E+00  3.02791E+00  2.75919E+00  2.37415E+00
   2.02121E+00  1.85930E+00  1.90689E+00  2.01210E+00  1.99226E+00  1.77387E+00  1.41041E+00  9.96525E-01  5.93860E-01  2.07965E-01
  -1.50945E-01 -4.70403E-01 -8.01992E-01 -1.16891E+00 -1.50142E+00 -1.68051E+00 -1.64350E+00 -1.49191E+00 -1.40297E+00 -1.44574E+00
  -1.52702E+00 -1.50688E+00 -1.38777E+00 -1.26652E+00 -1.19164E+00 -1.08251E+00 -7.67276E-01 -2.00394E-01  4.96386E-01  1.15259E+00
   1.64349E+00  1.94122E+00  2.06968E+00  2.07552E+00  1.99407E+00  1.82802E+00  1.59714E+00  1.40845E+00  1.36135E+00  1.52688E+00
   1.90798E+00  2.43169E+00  2.94753E+00  3.26848E+00  3.25555E+00  2.82316E+00  1.97873E+00  8.54533E-01 -2.95208E-01 -1.18709E+00
  -1.63961E+00 -1.56415E+00 -8.78633E-01  3.94107E-01  1.98949E+00  3.43970E+00  4.29960E+00  4.40067E+00  3.83352E+00  2.76563E+00
   1.46890E+00  2.77134E-01 -4.29085E-01 -3.74046E-01  3.68714E-01  1.52626E+00  2.77640E+00  3.88449E+00  4.73311E+00  5.26071E+00
   5.48687E+00  5.49298E+00  5.40291E+00  5.35446E+00  5.44325E+00  5.68817E+00  6.07527E+00  6.53911E+00  6.96210E+00  7.23253E+00
   7.30559E+00  7.26744E+00  7.28455E+00  7.48180E+00  7.86426E+00  8.36301E+00  8.91716E+00  9.47434E+00  1.00345E+01  1.06666E+01
   1.13950E+01  1.23628E+01  1.39878E+01  1.69329E+01  2.08770E+01  2.55024E+01  3.13647E+01  3.93796E+01  4.89407E+01  5.70555E+01
   6.02515E+01  5.74587E+01  5.04699E+01  4.18077E+01  3.30559E+01  2.48720E+01  1.76664E+01  1.19073E+01  7.90132E+00  5.98200E+00
   5.11325E+00  4.52853E+00  4.09261E+00  3.74675E+00  3.43101E+00  3.10225E+00  2.76306E+00  2.42646E+00  2.10395E+00  1.80321E+00
   1.53427E+00  1.30617E+00  1.12046E+00  9.67529E-01  8.31482E-01  6.99843E-01  5.66794E-01  4.34561E-01  3.09497E-01  2.00540E-01
   1.15129E-01  5.54023E-02  1.52107E-02 -1.48835E-02 -4.31775E-02 -7.38215E-02 -1.09867E-01 -1.51322E-01 -1.93191E-01 -2.28375E-01
  -2.52035E-01 -2.62293E-01 -2.62005E-01 -2.54256E-01 -2.40998E-01 -2.23591E-01 -2.03143E-01 -1.80229E-01 -1.55119E-01 -1.25492E-01
  -8.90761E-02 -4.39496E-02  1.17211E-02  8.00458E-02  1.63599E-01  2.65877E-01  3.90824E-01  5.42800E-01  7.26312E-01  9.46383E-01
   1.20836E+00  1.51793E+00  1.88042E+00  2.30060E+00  2.78226E+00  3.32828E+00  3.94015E+00  4.61770E+00  5.35839E+00  6.15728E+00
   7.00684E+00  7.89737E+00  8.81689E+00  9.75158E+00  1.06858E+01  1.16030E+01  1.24863E+01  1.33198E+01  1.40888E+01  1.47811E+01
   1.53869E+01  1.59002E+01  1.63194E+01  1.66469E+01  1.68893E+01  1.70567E+01  1.71607E+01  1.72138E+01  1.72265E+01  1.72063E+01
   1.71551E+01  1.70692E+01  1.69398E+01  1.67551E+01  1.65033E+01  1.61756E+01  1.57686E+01  1.52862E+01  1.47392E+01  1.41442E+01
   1.35206E+01  1.28881E+01  1.22633E+01  1.16590E+01  1.10832E+01  1.05397E+01  1.00294E+01  9.55123E+00  9.10337E+00  8.68427E+00
   8.29312E+00  7.93020E+00  7.59644E+00  7.29336E+00  7.02264E+00  6.78624E+00  6.58607E+00  6.42406E+00  6.30172E+00  6.22033E+00
   6.18076E+00  6.18377E+00  6.22978E+00  6.31895E+00  6.45081E+00  6.62445E+00  6.83829E+00  7.09030E+00  7.37767E+00  7.69684E+00
   8.04318E+00  8.41126E+00  8.79477E+00  9.18684E+00  9.57986E+00  9.96579E+00  1.03362E+01  1.06827E+01  1.09973E+01  1.12727E+01
   1.15025E+01  1.16813E+01  1.18048E+01  1.18706E+01  1.18777E+01  1.18266E+01  1.17194E+01  1.15595E+01  1.13511E+01  1.10997E+01
   1.08115E+01  1.04931E+01  1.01509E+01  9.79146E+00  9.42092E+00  9.04516E+00  8.66941E+00  8.29834E+00  7.93569E+00  7.58465E+00
   7.24768E+00  6.92682E+00  6.62339E+00  6.33829E+00  6.07178E+00  5.82392E+00  5.59444E+00  5.38301E+00  5.18893E+00  5.01144E+00
   4.84956E+00  4.70240E+00  4.56903E+00  4.44862E+00  4.34018E+00  4.24280E+00  4.15549E+00  4.07754E+00  4.00816E+00  3.94674E+00
   3.89251E+00  3.84485E+00  3.80310E+00  3.76685E+00  3.73563E+00  3.70908E+00  3.68667E+00  3.66804E+00  3.65284E+00  3.64087E+00
   3.63187E+00  3.62561E+00  3.62175E+00  3.62013E+00  3.62055E+00  3.62297E+00  3.62719E+00  3.63309E+00  3.64044E+00  3.64918E+00
   3.65921E+00  3.67055E+00  3.68304E+00  3.69659E+00  3.71105E+00  3.72644E+00  3.74269E+00  3.75985E+00  3.77775E+00  3.79635E+00
   3.81554E+00  3.83540E+00  3.85587E+00  3.87699E+00  3.89859E+00  3.92068E+00  3.94317E+00  3.96618E+00  3.98965E+00  4.01357E+00
   4.03781E+00  4.06240E+00  4.08731E+00  4.11263E+00  4.13828E+00  4.16427E+00  4.19046E+00  4.21694E+00  4.24368E+00  4.27076E+00
   4.29809E+00  4.32567E+00  4.35339E+00  4.38136E+00  4.40956E+00  4.43806E+00  4.46674E+00  4.49560E+00
 NY background values follow
     7.944E+00    7.903E+00    7.862E+00    7.821E+00    7.780E+00    7.739E+00    7.698E+00    7.657E+00    7.616E+00    7.575E+00
     7.534E+00    7.493E+00    7.452E+00    7.411E+00    7.370E+00    7.329E+00    7.288E+00    7.247E+00    7.206E+00    7.165E+00
     7.124E+00    7.083E+00    7.043E+00    7.002E+00    6.961E+00    6.920E+00    6.879E+00    6.838E+00    6.798E+00    6.757E+00
     6.716E+00    6.675E+00    6.634E+00    6.594E+00    6.553E+00    6.512E+00    6.471E+00    6.431E+00    6.390E+00    6.349E+00
     6.309E+00    6.268E+00    6.227E+00    6.187E+00    6.146E+00    6.105E+00    6.065E+00    6.024E+00    5.983E+00    5.943E+00
     5.902E+00    5.861E+00    5.821E+00    5.780E+00    5.740E+00    5.699E+00    5.658E+00    5.618E+00    5.577E+00    5.537E+00
     5.496E+00    5.455E+00    5.415E+00    5.374E+00    5.333E+00    5.293E+00    5.252E+00    5.211E+00    5.171E+00    5.130E+00
     5.089E+00    5.049E+00    5.008E+00    4.967E+00    4.927E+00    4.886E+00    4.845E+00    4.804E+00    4.763E+00    4.723E+00
     4.682E+00    4.641E+00    4.600E+00    4.559E+00    4.518E+00    4.477E+00    4.436E+00    4.395E+00    4.354E+00    4.313E+00
     4.272E+00    4.231E+00    4.190E+00    4.149E+00    4.108E+00    4.066E+00    4.025E+00    3.984E+00    3.943E+00    3.901E+00
     3.860E+00    3.819E+00    3.777E+00    3.736E+00    3.694E+00    3.653E+00    3.611E+00    3.570E+00    3.528E+00    3.486E+00
     3.445E+00    3.403E+00    3.361E+00    3.319E+00    3.278E+00    3.236E+00    3.194E+00    3.152E+00    3.110E+00    3.068E+00
     3.026E+00    2.984E+00    2.942E+00    2.900E+00    2.858E+00    2.816E+00    2.774E+00    2.732E+00    2.689E+00    2.647E+00
     2.605E+00    2.563E+00    2.520E+00    2.478E+00    2.435E+00    2.393E+00    2.350E+00    2.308E+00    2.265E+00    2.223E+00
     2.180E+00    2.138E+00    2.095E+00    2.053E+00    2.010E+00    1.968E+00    1.925E+00    1.883E+00    1.840E+00    1.798E+00
     1.756E+00    1.713E+00    1.671E+00    1.629E+00    1.587E+00    1.546E+00    1.504E+00    1.462E+00    1.421E+00    1.379E+00
     1.338E+00    1.297E+00    1.256E+00    1.215E+00    1.175E+00    1.134E+00    1.094E+00    1.054E+00    1.014E+00    9.746E-01
     9.351E-01    8.959E-01    8.569E-01    8.181E-01    7.795E-01    7.412E-01    7.032E-01    6.654E-01    6.278E-01    5.906E-01
     5.536E-01    5.169E-01    4.805E-01    4.444E-01    4.086E-01    3.731E-01    3.378E-01    3.029E-01    2.682E-01    2.339E-01
     1.998E-01    1.660E-01    1.326E-01    9.936E-02    6.645E-02    3.383E-02    1.500E-03   -3.054E-02   -6.229E-02   -9.376E-02
    -1.249E-01   -1.558E-01   -1.864E-01   -2.167E-01   -2.468E-01   -2.765E-01   -3.060E-01   -3.351E-01   -3.640E-01   -3.926E-01
    -4.210E-01   -4.490E-01   -4.767E-01   -5.042E-01   -5.314E-01   -5.583E-01   -5.849E-01   -6.112E-01   -6.373E-01   -6.631E-01
    -6.885E-01   -7.137E-01   -7.387E-01   -7.633E-01   -7.877E-01   -8.118E-01   -8.356E-01   -8.591E-01   -8.823E-01   -9.053E-01
    -9.279E-01   -9.503E-01   -9.724E-01   -9.941E-01   -1.016E+00   -1.037E+00   -1.058E+00   -1.078E+00   -1.098E+00   -1.118E+00
    -1.138E+00   -1.157E+00   -1.176E+00   -1.194E+00   -1.212E+00   -1.230E+00   -1.248E+00   -1.265E+00   -1.282E+00   -1.298E+00
    -1.314E+00   -1.330E+00   -1.345E+00   -1.360E+00   -1.374E+00   -1.389E+00   -1.402E+00   -1.416E+00   -1.429E+00   -1.441E+00
    -1.453E+00   -1.465E+00   -1.476E+00   -1.487E+00   -1.498E+00   -1.508E+00   -1.518E+00   -1.527E+00   -1.536E+00   -1.544E+00
    -1.552E+00   -1.559E+00   -1.566E+00   -1.573E+00   -1.579E+00   -1.584E+00   -1.590E+00   -1.594E+00   -1.599E+00   -1.603E+00
    -1.606E+00   -1.609E+00   -1.611E+00   -1.613E+00   -1.615E+00   -1.616E+00   -1.617E+00   -1.617E+00   -1.617E+00   -1.617E+00
    -1.616E+00   -1.614E+00   -1.612E+00   -1.610E+00   -1.607E+00   -1.604E+00   -1.601E+00   -1.597E+00   -1.592E+00   -1.587E+00
    -1.582E+00   -1.576E+00   -1.570E+00   -1.564E+00   -1.557E+00   -1.549E+00   -1.541E+00   -1.533E+00   -1.524E+00   -1.515E+00
    -1.506E+00   -1.496E+00   -1.486E+00   -1.475E+00   -1.464E+00   -1.452E+00   -1.440E+00   -1.428E+00   -1.415E+00   -1.402E+00
    -1.388E+00   -1.374E+00   -1.359E+00   -1.345E+00   -1.329E+00   -1.314E+00   -1.298E+00   -1.282E+00   -1.265E+00   -1.248E+00
    -1.230E+00   -1.212E+00   -1.194E+00   -1.176E+00   -1.157E+00   -1.138E+00   -1.118E+00   -1.098E+00   -1.078E+00   -1.057E+00
    -1.036E+00   -1.015E+00   -9.937E-01   -9.718E-01   -9.496E-01   -9.271E-01   -9.043E-01   -8.812E-01   -8.578E-01   -8.341E-01
    -8.102E-01   -7.859E-01   -7.613E-01   -7.365E-01   -7.113E-01   -6.860E-01   -6.603E-01   -6.344E-01   -6.082E-01   -5.817E-01
    -5.550E-01   -5.280E-01   -5.008E-01   -4.734E-01   -4.457E-01   -4.177E-01   -3.896E-01   -3.612E-01   -3.326E-01   -3.037E-01
    -2.746E-01   -2.454E-01   -2.159E-01   -1.862E-01   -1.562E-01   -1.261E-01   -9.582E-02   -6.531E-02   -3.461E-02   -3.717E-03
     2.736E-02    5.862E-02    9.005E-02    1.217E-01    1.534E-01    1.854E-01    2.175E-01    2.498E-01    2.822E-01    3.148E-01
     3.475E-01    3.804E-01    4.134E-01    4.466E-01    4.799E-01    5.133E-01    5.469E-01    5.806E-01    6.144E-01    6.483E-01
     6.823E-01    7.165E-01    7.507E-01    7.851E-01    8.196E-01    8.541E-01    8.888E-01    9.235E-01    9.584E-01    9.933E-01
     1.028E+00    1.063E+00    1.098E+00    1.134E+00    1.169E+00    1.204E+00    1.240E+00    1.275E+00    1.311E+00    1.346E+00
     1.382E+00    1.418E+00    1.454E+00    1.489E+00    1.525E+00    1.561E+00    1.597E+00    1.633E+00    1.669E+00    1.705E+00
     1.741E+00    1.777E+00    1.813E+00    1.849E+00    1.885E+00    1.921E+00    1.957E+00    1.993E+00    2.029E+00    2.066E+00
     2.102E+00    2.138E+00    2.174E+00    2.210E+00    2.246E+00    2.282E+00    2.318E+00    2.354E+00    2.390E+00    2.426E+00
     2.462E+00    2.497E+00    2.533E+00    2.569E+00    2.605E+00    2.640E+00    2.676E+00    2.712E+00    2.747E+00    2.783E+00
     2.818E+00    2.854E+00    2.889E+00    2.924E+00    2.960E+00    2.995E+00    3.030E+00    3.066E+00    3.101E+00    3.136E+00
     3.171E+00    3.207E+00    3.242E+00    3.277E+00    3.312E+00    3.347E+00    3.382E+00    3.418E+00    3.453E+00    3.488E+00
     3.523E+00    3.558E+00    3.593E+00    3.628E+00    3.663E+00    3.698E+00    3.733E+00    3.768E+00    3.803E+00    3.838E+00
     3.873E+00    3.908E+00    3.944E+00    3.979E+00    4.014E+00    4.049E+00    4.084E+00    4.119E+00
 PCr      Conc. = 5.78E+02
