 LCModel (Version 6.3-1L) Copyright: S.W. Provencher.          Ref.: Magn. Reson. Med. 30:672-679 (1993).                
 Slice#1 Row#2 Col#9  K_02_press_1_raw_act
 36 lines in following concentration table = NCONC+1
    Conc.  %SD /Cr+PCr  Metabolite                                         
    0.000 999%   0.000 Ala                                                 
   83.463 110%   0.196 Asp                                                 
    0.000 999%   0.000 Cr                                                  
  425.546  15%   1.000 PCr                                                 
   46.950 120%   0.110 GABA                                                
   30.069 185% 7.1E-02 Glc                                                 
    0.000 999%   0.000 Gln                                                 
  186.745 268%   0.439 Glu                                                 
  142.344  17%   0.334 GPC                                                 
    0.000 999%   0.000 PCh                                                 
  105.961  89%   0.249 GSH                                                 
  305.135  89%   0.717 Ins                                                 
  966.084  30%   2.270 Lac                                                 
   15.892 855% 3.7E-02 NAA                                                 
  693.956  18%   1.631 NAAG                                                
   14.246 119% 3.3E-02 Scyllo                                              
   17.357 514% 4.1E-02 Tau                                                 
   38.264 225% 9.0E-02 -CrCH2                                              
  142.344  17%   0.334 GPC+PCh                                             
  709.847  13%   1.668 NAA+NAAG                                            
  425.546  15%   1.000 Cr+PCr                                              
  186.745 268%   0.439 Glu+Gln                                             
 6.04E+03  10%  14.191 Lip13a                                              
    0.000 999%   0.000 Lip13b                                              
 1.45E+03  20%   3.398 Lip09                                               
    0.000 999%   0.000 MM09                                                
  919.561  39%   2.161 Lip20                                               
  441.682  86%   1.038 MM20                                                
   56.862 302%   0.134 MM12                                                
    0.000 999%   0.000 MM14                                                
    0.000 999%   0.000 MM17                                                
 6.04E+03  10%  14.191 Lip13a+Lip13b                                       
 6.10E+03   9%  14.324 MM14+Lip13a+Lip13b+MM12                             
 1.45E+03  20%   3.398 MM09+Lip09                                          
 1.36E+03  24%   3.199 MM20+Lip20                                          
   6 lines in following misc. output table
  FWHM = 0.092 ppm    S/N =   4                                            
  Data shift = 0.031 ppm                                                   
  Ph: 114 deg      53.2 deg/ppm                                            
  alphaB,S = 8.5E+01,   4.1E+02                                            
   14 spline knots.   Ns =10(1)                                            
   2 inflections.     1 extrema                                            
  498 points on ppm-axis = NY
      4.000000     3.992357     3.984714     3.977070     3.969427     3.961784     3.954141     3.946497     3.938854     3.931211
      3.923568     3.915925     3.908281     3.900638     3.892995     3.885352     3.877708     3.870065     3.862422     3.854779
      3.847136     3.839492     3.831849     3.824206     3.816563     3.808919     3.801276     3.793633     3.785990     3.778347
      3.770703     3.763060     3.755417     3.747774     3.740130     3.732487     3.724844     3.717201     3.709558     3.701914
      3.694271     3.686628     3.678985     3.671341     3.663698     3.656055     3.648412     3.640769     3.633125     3.625482
      3.617839     3.610196     3.602552     3.594909     3.587266     3.579623     3.571980     3.564336     3.556693     3.549050
      3.541407     3.533763     3.526120     3.518477     3.510834     3.503191     3.495547     3.487904     3.480261     3.472618
      3.464974     3.457331     3.449688     3.442045     3.434402     3.426758     3.419115     3.411472     3.403829     3.396185
      3.388542     3.380899     3.373256     3.365613     3.357969     3.350326     3.342683     3.335040     3.327396     3.319753
      3.312110     3.304467     3.296824     3.289180     3.281537     3.273894     3.266251     3.258607     3.250964     3.243321
      3.235678     3.228034     3.220391     3.212748     3.205105     3.197462     3.189818     3.182175     3.174532     3.166889
      3.159245     3.151602     3.143959     3.136316     3.128673     3.121029     3.113386     3.105743     3.098100     3.090456
      3.082813     3.075170     3.067527     3.059884     3.052240     3.044597     3.036954     3.029311     3.021667     3.014024
      3.006381     2.998738     2.991095     2.983451     2.975808     2.968165     2.960522     2.952878     2.945235     2.937592
      2.929949     2.922306     2.914662     2.907019     2.899376     2.891733     2.884089     2.876446     2.868803     2.861160
      2.853517     2.845873     2.838230     2.830587     2.822944     2.815300     2.807657     2.800014     2.792371     2.784728
      2.777084     2.769441     2.761798     2.754155     2.746511     2.738868     2.731225     2.723582     2.715939     2.708295
      2.700652     2.693009     2.685366     2.677722     2.670079     2.662436     2.654793     2.647150     2.639506     2.631863
      2.624220     2.616577     2.608933     2.601290     2.593647     2.586004     2.578361     2.570717     2.563074     2.555431
      2.547788     2.540144     2.532501     2.524858     2.517215     2.509572     2.501928     2.494285     2.486642     2.478999
      2.471355     2.463712     2.456069     2.448426     2.440783     2.433139     2.425496     2.417853     2.410210     2.402566
      2.394923     2.387280     2.379637     2.371994     2.364350     2.356707     2.349064     2.341421     2.333777     2.326134
      2.318491     2.310848     2.303205     2.295561     2.287918     2.280275     2.272632     2.264988     2.257345     2.249702
      2.242059     2.234416     2.226772     2.219129     2.211486     2.203843     2.196199     2.188556     2.180913     2.173270
      2.165627     2.157983     2.150340     2.142697     2.135054     2.127410     2.119767     2.112124     2.104481     2.096838
      2.089194     2.081551     2.073908     2.066265     2.058621     2.050978     2.043335     2.035692     2.028049     2.020405
      2.012762     2.005119     1.997476     1.989833     1.982190     1.974546     1.966903     1.959260     1.951617     1.943974
      1.936331     1.928688     1.921045     1.913402     1.905759     1.898115     1.890472     1.882829     1.875186     1.867543
      1.859900     1.852257     1.844614     1.836971     1.829327     1.821684     1.814041     1.806398     1.798755     1.791112
      1.783469     1.775826     1.768183     1.760540     1.752896     1.745253     1.737610     1.729967     1.722324     1.714681
      1.707038     1.699395     1.691752     1.684108     1.676465     1.668822     1.661179     1.653536     1.645893     1.638250
      1.630607     1.622964     1.615321     1.607677     1.600034     1.592391     1.584748     1.577105     1.569462     1.561819
      1.554176     1.546533     1.538890     1.531246     1.523603     1.515960     1.508317     1.500674     1.493031     1.485388
      1.477745     1.470102     1.462458     1.454815     1.447172     1.439529     1.431886     1.424243     1.416600     1.408957
      1.401314     1.393671     1.386027     1.378384     1.370741     1.363098     1.355455     1.347812     1.340169     1.332526
      1.324883     1.317240     1.309596     1.301953     1.294310     1.286667     1.279024     1.271381     1.263738     1.256095
      1.248452     1.240808     1.233165     1.225522     1.217879     1.210236     1.202593     1.194950     1.187307     1.179664
      1.172021     1.164377     1.156734     1.149091     1.141448     1.133805     1.126162     1.118519     1.110876     1.103233
      1.095590     1.087946     1.080303     1.072660     1.065017     1.057374     1.049731     1.042088     1.034445     1.026802
      1.019158     1.011515     1.003872     0.996229     0.988586     0.980943     0.973300     0.965657     0.958014     0.950371
      0.942727     0.935084     0.927441     0.919798     0.912155     0.904512     0.896869     0.889226     0.881583     0.873940
      0.866296     0.858653     0.851010     0.843367     0.835724     0.828081     0.820438     0.812795     0.805152     0.797508
      0.789865     0.782222     0.774579     0.766936     0.759293     0.751650     0.744007     0.736364     0.728721     0.721077
      0.713434     0.705791     0.698148     0.690505     0.682862     0.675219     0.667576     0.659933     0.652290     0.644646
      0.637003     0.629360     0.621717     0.614074     0.606431     0.598788     0.591145     0.583502     0.575858     0.568215
      0.560572     0.552929     0.545286     0.537643     0.530000     0.522357     0.514714     0.507071     0.499427     0.491784
      0.484141     0.476498     0.468855     0.461212     0.453569     0.445925     0.438282     0.430639     0.422996     0.415353
      0.407710     0.400067     0.392424     0.384780     0.377137     0.369494     0.361851     0.354208     0.346565     0.338922
      0.331278     0.323635     0.315992     0.308349     0.300706     0.293063     0.285420     0.277777     0.270133     0.262490
      0.254847     0.247204     0.239561     0.231918     0.224275     0.216631     0.208988     0.201345
 NY phased data points follow
  -5.39581E-01  1.47007E+00 -2.55024E+00  3.38763E+00  3.35014E+00  2.54651E+00 -8.58511E-01 -3.28423E+00  4.52711E+00  8.22289E+00
   7.86396E+00  3.03175E+00  3.28129E-01  4.57589E+00 -2.12022E+00 -3.40758E+00 -2.10232E+00 -4.55246E-01  1.13686E+00 -3.63434E-01
  -2.40133E+00 -4.79098E+00  2.00655E+00 -2.79434E+00  2.89572E-01 -2.72327E+00 -2.64058E+00  6.65747E-01  5.21843E+00  1.54100E+00
  -6.05218E+00 -3.09401E+00 -1.74361E+00 -5.33084E+00 -2.65025E+00  8.52614E-01 -4.89308E+00 -4.87707E+00 -2.54307E+00 -5.56290E-01
  -4.35427E+00 -7.07595E+00  1.23352E+00 -2.88097E+00  2.81321E+00 -9.90566E-01  3.46960E+00  2.67940E+00 -8.03453E-02 -3.10497E+00
   1.40233E+00  3.03484E+00 -1.48547E+00  9.30712E-01  2.11911E+00 -1.20692E-01 -4.84654E+00 -5.77222E-01 -4.55418E+00 -3.32009E+00
  -2.49888E+00 -4.30457E+00 -8.12462E-01 -2.99482E+00 -5.04245E+00 -8.80793E+00 -7.35562E+00 -4.55464E+00 -7.87414E+00 -4.66600E+00
  -4.15408E+00 -2.14193E+00 -4.15664E+00 -3.77831E+00  3.52306E-01 -6.95633E+00 -3.13546E+00 -5.35378E-01 -8.08573E+00 -5.85655E+00
  -7.21773E+00 -1.13787E+00 -4.74906E+00 -2.46278E+00 -2.80895E+00 -4.39900E+00 -7.35300E+00 -2.57303E+00 -1.69111E+00 -2.78610E+00
  -2.69025E+00 -6.25250E-01 -6.22312E+00 -7.83780E-01  1.27098E+00 -6.20450E+00 -3.16673E+00 -2.05575E+00  4.00115E-01 -1.67932E+00
  -4.08916E+00  5.12323E+00  8.25780E+00  1.35252E+00  8.64510E+00  1.71171E+00  4.57304E+00  5.68255E+00  2.91788E+00  6.45588E+00
  -3.29490E+00  5.39906E-01 -5.45395E-01  5.82710E-01 -2.43460E-01 -2.03933E+00 -3.84987E+00  6.02969E-01 -7.19249E+00  5.97218E-01
   3.20028E+00 -3.95693E+00 -2.70162E+00  1.39862E+00  4.00964E+00  7.00072E+00  7.74800E+00  1.23282E+00  5.14918E+00  5.41072E+00
   2.58107E+00  3.43039E+00  5.75718E+00  3.52424E+00  2.10408E+00  4.57757E+00  3.58097E+00 -4.03537E-01 -3.81938E+00 -3.65606E+00
  -4.46514E+00 -3.00375E+00  1.06758E-01 -3.88501E+00 -3.07124E+00  6.14508E+00  1.22264E+00  2.24157E+00 -5.25687E+00 -5.00702E+00
  -6.09388E+00 -2.17636E-02 -2.21314E-02 -1.49999E-01  9.20036E-01 -7.53857E+00 -4.66846E+00 -2.89065E+00 -4.84155E+00 -5.02413E+00
  -3.18304E+00 -4.06369E+00 -5.58404E-02 -1.71126E+00 -5.89356E+00 -7.84536E+00 -4.69888E+00 -8.89143E+00 -8.36600E+00 -3.80737E+00
  -3.39619E+00 -8.56128E+00 -3.53966E+00 -3.22690E+00 -6.42671E+00 -3.66979E+00 -8.11824E+00 -8.44676E+00 -7.90208E+00 -7.58298E+00
  -1.57014E+01 -6.01810E+00 -5.63823E-01 -2.22557E+00 -7.83513E+00 -4.39244E+00 -3.64168E+00 -3.88023E+00 -4.39589E+00 -6.83241E+00
  -2.74884E+00 -1.74484E+00 -7.05834E+00 -2.07024E+00 -8.52000E+00 -4.88404E+00 -7.68592E+00 -6.96427E+00  6.43670E-01 -6.02649E+00
  -9.60908E-01 -4.79465E+00 -5.34437E+00 -6.13980E+00 -1.70290E+00 -1.27013E+00 -1.55526E+00 -3.11638E+00 -2.88548E+00 -5.93072E-01
  -2.81137E+00 -5.20443E+00 -1.69047E-01  1.67530E+00 -2.78310E+00  1.26234E+00 -3.67298E+00 -4.80932E+00 -5.24713E+00  3.80246E-01
   5.83666E-01 -5.53020E-02 -2.87256E+00 -6.46274E+00 -2.99729E+00 -5.39839E+00 -4.12058E+00 -4.07022E+00 -4.14495E+00  1.81258E+00
  -1.15420E+00 -7.33775E-01 -2.50283E-01 -5.00544E-01  1.50723E+00 -4.96767E-01 -3.26907E+00  1.10689E+00  1.17365E+00  1.53469E-01
  -4.95655E+00 -2.62187E+00 -2.85501E+00  5.18069E+00  4.17315E+00  5.20693E+00 -1.31859E+00  4.77937E+00  4.17702E+00  2.40849E+00
   5.38225E+00  6.06227E+00  8.08530E+00  1.20639E+01  1.03890E+01  8.31928E+00  1.46056E+01  1.95647E+01  1.72711E+01  1.93981E+01
   1.42385E+01  7.60517E+00  7.38026E+00  6.41843E+00  5.42781E+00  7.48753E+00  3.38403E+00  1.16136E+00 -2.60443E+00 -7.79874E-01
  -6.84887E+00 -5.71577E+00 -9.67540E+00 -4.95357E+00 -5.14758E+00 -1.08842E+01 -7.38005E+00 -2.71870E+00 -8.21718E+00 -2.47631E+00
  -1.21020E+01 -1.10968E+01 -3.43235E+00 -5.08383E+00 -8.58549E+00 -4.09363E+00 -7.44790E+00 -7.63952E+00 -2.64126E+00 -5.00774E+00
  -3.87505E+00 -5.03362E+00 -7.32693E+00  7.16537E-01 -3.85158E+00 -4.23239E+00  5.26768E-01 -1.23691E+00 -8.47370E+00 -3.80406E+00
  -3.42470E+00  4.23236E-01 -3.56598E+00 -7.87885E+00 -1.76528E+00 -4.28272E+00 -4.99143E+00 -5.57769E+00 -8.54859E+00 -8.18912E+00
  -6.27365E+00 -2.98538E+00 -1.74328E+00 -7.20792E+00 -7.87291E+00  4.36743E+00 -8.42067E+00 -8.53544E-01 -1.11992E+01 -6.86591E+00
  -2.03330E+00 -8.55683E+00 -2.08652E+00 -6.66585E+00 -4.97867E+00 -1.70962E+00 -6.78841E+00 -8.10365E+00 -1.12163E+01 -1.72239E+00
  -1.71685E+00  2.51181E+00  2.37871E-01  7.27107E+00  1.32704E-02  1.03505E+01  1.09997E+01  1.33453E+01  1.12447E+01  1.45775E+01
   1.46032E+01  1.85369E+01  2.18188E+01  1.93432E+01  1.96512E+01  2.18044E+01  1.92362E+01  2.45883E+01  2.48378E+01  2.39012E+01
   2.39831E+01  1.69110E+01  2.03511E+01  2.29122E+01  2.48693E+01  2.38029E+01  1.97879E+01  2.26111E+01  2.22474E+01  2.14196E+01
   1.67848E+01  1.60828E+01  1.99370E+01  1.90002E+01  2.22857E+01  1.60365E+01  1.56802E+01  1.32299E+01  1.14464E+01  1.20902E+01
   1.30720E+01  1.20404E+01  1.19198E+01  8.15390E+00  6.04017E+00  5.14714E+00  7.77409E+00  7.90857E+00  5.04553E+00  3.05978E+00
   2.13604E+00  7.01458E+00  8.98237E+00  9.56957E+00  6.17524E+00  3.76925E+00  2.70891E+00  1.17978E+01  9.31448E+00  9.48076E+00
   4.93031E+00  3.49549E+00  8.69567E+00  4.87947E+00  4.83814E+00  6.67191E+00  4.21520E+00  1.84989E+00  3.26218E+00  4.85467E+00
   2.61713E+00  6.16518E+00  1.48961E+00  1.54652E+00  1.55756E+00  2.31006E+00 -2.33828E-01 -2.38962E+00  3.25447E+00  2.30252E+00
  -5.73866E-01  2.92294E+00  3.41665E+00  4.55806E+00 -2.43880E-01  1.17532E+00 -4.67224E-01 -3.31831E+00 -1.21505E+00 -8.18290E+00
  -2.95952E+00 -5.61134E+00 -8.38583E-01 -6.98248E+00 -2.27651E+00 -5.74659E+00 -3.38420E+00 -4.95557E+00 -5.22826E+00 -9.93581E+00
  -9.37426E+00 -4.43152E+00 -1.75684E+00  1.30586E+00 -4.99566E+00 -1.84560E+00 -7.53182E+00 -4.64897E+00 -7.30774E+00 -2.40373E-01
  -6.31316E+00 -8.87128E+00 -4.43149E+00  4.99583E-01 -9.42003E+00 -5.70545E+00 -7.33714E+00 -5.15432E+00 -8.03773E+00 -6.44663E+00
  -2.51629E+00 -6.08352E+00  1.74335E+00 -5.26951E+00 -8.81366E+00 -1.32843E+00 -2.25803E+00 -7.23895E+00 -5.48250E+00 -5.28060E+00
  -6.46744E+00 -9.40653E+00 -2.70867E+00 -4.21509E+00 -4.70845E+00 -1.23580E+00 -5.95502E+00 -7.99325E+00 -1.01429E+01 -2.40352E+00
  -2.76568E+00 -2.08209E+00 -1.01179E+01 -3.58784E+00  2.05239E-01 -3.83437E+00 -9.36528E+00 -1.69527E+00 -4.02557E+00 -7.78468E+00
  -4.11066E+00 -3.33796E+00 -3.44672E+00 -5.46560E+00 -4.16743E+00 -3.42659E+00 -5.87302E+00  8.67083E-03 -7.30788E+00 -4.84632E+00
  -6.42086E+00 -5.11594E+00 -4.72914E+00 -3.42805E+00 -5.44103E+00 -5.34288E+00 -1.57913E+00 -8.87602E+00
 NY points of the fit to the data follow
  -9.90536E-01 -8.21523E-01 -5.63877E-01 -1.73083E-01  3.56748E-01  9.72053E-01  1.61190E+00  2.22361E+00  2.75199E+00  3.12745E+00
   3.29150E+00  3.23838E+00  2.99350E+00  2.58857E+00  2.05866E+00  1.43652E+00  7.49279E-01  2.23711E-02 -7.08397E-01 -1.36796E+00
  -1.82884E+00 -2.00788E+00 -2.00881E+00 -1.94416E+00 -1.83926E+00 -1.70841E+00 -1.56507E+00 -1.41352E+00 -1.25871E+00 -1.11625E+00
  -1.00442E+00 -9.42315E-01 -9.39625E-01 -9.88229E-01 -1.07697E+00 -1.20380E+00 -1.36002E+00 -1.51766E+00 -1.65260E+00 -1.76002E+00
  -1.83499E+00 -1.85077E+00 -1.78944E+00 -1.68949E+00 -1.58296E+00 -1.48168E+00 -1.39918E+00 -1.35189E+00 -1.35079E+00 -1.39086E+00
  -1.46423E+00 -1.56650E+00 -1.68834E+00 -1.82898E+00 -1.98212E+00 -2.13816E+00 -2.29514E+00 -2.44727E+00 -2.56876E+00 -2.63609E+00
  -2.66075E+00 -2.67422E+00 -2.69099E+00 -2.71384E+00 -2.74388E+00 -2.77821E+00 -2.81190E+00 -2.84044E+00 -2.86291E+00 -2.88153E+00
  -2.89582E+00 -2.89864E+00 -2.88751E+00 -2.86959E+00 -2.85407E+00 -2.84975E+00 -2.85330E+00 -2.86400E+00 -2.88705E+00 -2.92392E+00
  -2.97284E+00 -3.02994E+00 -3.09209E+00 -3.15542E+00 -3.21554E+00 -3.27607E+00 -3.33793E+00 -3.39892E+00 -3.45905E+00 -3.51801E+00
  -3.57270E+00 -3.61486E+00 -3.61537E+00 -3.44841E+00 -3.01027E+00 -2.35396E+00 -1.54696E+00 -6.35203E-01  3.46945E-01  1.35027E+00
   2.31807E+00  3.19295E+00  3.91582E+00  4.43148E+00  4.69303E+00  4.66913E+00  4.35934E+00  3.79864E+00  3.04432E+00  2.14883E+00
   1.14626E+00  6.75681E-02 -1.03840E+00 -2.07745E+00 -2.89593E+00 -3.32571E+00 -3.37878E+00 -3.11110E+00 -2.55475E+00 -1.79562E+00
  -9.01385E-01  8.20270E-02  1.11979E+00  2.17782E+00  3.20689E+00  4.13405E+00  4.88436E+00  5.39360E+00  5.61100E+00  5.51411E+00
   5.11895E+00  4.47341E+00  3.63851E+00  2.66613E+00  1.59385E+00  4.60376E-01 -6.63375E-01 -1.65369E+00 -2.34073E+00 -2.62160E+00
  -2.68504E+00 -2.68685E+00 -2.66207E+00 -2.62219E+00 -2.57781E+00 -2.53856E+00 -2.51258E+00 -2.51148E+00 -2.53486E+00 -2.57531E+00
  -2.63146E+00 -2.69662E+00 -2.76303E+00 -2.82682E+00 -2.88810E+00 -2.95100E+00 -3.01572E+00 -3.08162E+00 -3.15075E+00 -3.23095E+00
  -3.33229E+00 -3.45067E+00 -3.57168E+00 -3.68560E+00 -3.79023E+00 -3.89545E+00 -4.01637E+00 -4.14679E+00 -4.26599E+00 -4.36200E+00
  -4.43081E+00 -4.47963E+00 -4.53143E+00 -4.59854E+00 -4.67089E+00 -4.73876E+00 -4.79762E+00 -4.84274E+00 -4.86949E+00 -4.87442E+00
  -4.85776E+00 -4.81922E+00 -4.75034E+00 -4.63644E+00 -4.47893E+00 -4.29758E+00 -4.11698E+00 -3.96480E+00 -3.85630E+00 -3.77981E+00
  -3.72325E+00 -3.68786E+00 -3.68144E+00 -3.71111E+00 -3.77668E+00 -3.86137E+00 -3.93254E+00 -3.98238E+00 -4.01789E+00 -4.04996E+00
  -4.08403E+00 -4.11692E+00 -4.14240E+00 -4.15545E+00 -4.15554E+00 -4.15375E+00 -4.15163E+00 -4.14701E+00 -4.14465E+00 -4.14566E+00
  -4.13989E+00 -4.10734E+00 -4.04614E+00 -3.97388E+00 -3.89644E+00 -3.81107E+00 -3.71755E+00 -3.61620E+00 -3.51192E+00 -3.41090E+00
  -3.31785E+00 -3.24329E+00 -3.18283E+00 -3.12337E+00 -3.05602E+00 -2.96724E+00 -2.84445E+00 -2.68396E+00 -2.49234E+00 -2.29404E+00
  -2.10846E+00 -1.94619E+00 -1.82374E+00 -1.75522E+00 -1.73685E+00 -1.74618E+00 -1.75600E+00 -1.75420E+00 -1.73955E+00 -1.71000E+00
  -1.66523E+00 -1.60314E+00 -1.52495E+00 -1.43355E+00 -1.30872E+00 -1.06027E+00 -4.31158E-01  6.60806E-01  2.09560E+00  3.74804E+00
   5.52880E+00  7.37156E+00  9.20446E+00  1.09351E+01  1.24512E+01  1.36541E+01  1.44705E+01  1.48331E+01  1.46951E+01  1.40592E+01
   1.29836E+01  1.15548E+01  9.85638E+00  7.95217E+00  5.90972E+00  3.83788E+00  1.92179E+00  4.33109E-01 -4.24093E-01 -9.09041E-01
  -1.28737E+00 -1.61450E+00 -1.89836E+00 -2.14494E+00 -2.36442E+00 -2.56417E+00 -2.74721E+00 -2.91679E+00 -3.07315E+00 -3.21669E+00
  -3.35158E+00 -3.48079E+00 -3.60157E+00 -3.70735E+00 -3.79333E+00 -3.85897E+00 -3.90456E+00 -3.93315E+00 -3.95338E+00 -3.97597E+00
  -4.00204E+00 -4.02897E+00 -4.05603E+00 -4.08308E+00 -4.10814E+00 -4.12804E+00 -4.14245E+00 -4.15402E+00 -4.16209E+00 -4.16745E+00
  -4.17122E+00 -4.17403E+00 -4.17617E+00 -4.17533E+00 -4.16573E+00 -4.14621E+00 -4.11798E+00 -4.08176E+00 -4.03818E+00 -3.98838E+00
  -3.93433E+00 -3.87778E+00 -3.81675E+00 -3.74869E+00 -3.67204E+00 -3.58509E+00 -3.48626E+00 -3.37390E+00 -3.24611E+00 -3.10071E+00
  -2.93511E+00 -2.74634E+00 -2.53095E+00 -2.28504E+00 -2.00414E+00 -1.68326E+00 -1.31685E+00 -8.98674E-01 -4.21888E-01  1.20973E-01
   7.37990E-01  1.43796E+00  2.23053E+00  3.12672E+00  4.13998E+00  5.28960E+00  6.61157E+00  8.19069E+00  1.00718E+01  1.20874E+01
   1.40864E+01  1.59788E+01  1.76955E+01  1.91592E+01  2.02721E+01  2.10372E+01  2.15849E+01  2.19553E+01  2.21474E+01  2.21735E+01
   2.20831E+01  2.19586E+01  2.18836E+01  2.19016E+01  2.20054E+01  2.21628E+01  2.23476E+01  2.25547E+01  2.27998E+01  2.30734E+01
   2.31960E+01  2.28805E+01  2.21217E+01  2.09715E+01  1.94599E+01  1.76378E+01  1.56457E+01  1.37738E+01  1.22207E+01  1.08956E+01
   9.73357E+00  8.70901E+00  7.80935E+00  7.02662E+00  6.35454E+00  5.78734E+00  5.31934E+00  4.94472E+00  4.65749E+00  4.45139E+00
   4.31984E+00  4.25585E+00  4.25207E+00  4.30071E+00  4.39359E+00  4.52207E+00  4.67709E+00  4.84927E+00  5.02903E+00  5.20680E+00
   5.37322E+00  5.51937E+00  5.63697E+00  5.71868E+00  5.75836E+00  5.75123E+00  5.69404E+00  5.58514E+00  5.42447E+00  5.21352E+00
   4.95526E+00  4.65390E+00  4.31467E+00  3.94356E+00  3.54703E+00  3.13173E+00  2.70429E+00  2.27104E+00  1.83783E+00  1.40989E+00
   9.91690E-01  5.86953E-01  1.98607E-01 -1.71168E-01 -5.20927E-01 -8.49857E-01 -1.15770E+00 -1.44465E+00 -1.71125E+00 -1.95832E+00
  -2.18690E+00 -2.39814E+00 -2.59326E+00 -2.77351E+00 -2.94010E+00 -3.09420E+00 -3.23694E+00 -3.36936E+00 -3.49245E+00 -3.60706E+00
  -3.71400E+00 -3.81399E+00 -3.90769E+00 -3.99568E+00 -4.07850E+00 -4.15660E+00 -4.23039E+00 -4.30025E+00 -4.36653E+00 -4.42952E+00
  -4.48949E+00 -4.54667E+00 -4.60128E+00 -4.65353E+00 -4.70358E+00 -4.75160E+00 -4.79774E+00 -4.84211E+00 -4.88484E+00 -4.92604E+00
  -4.96582E+00 -5.00426E+00 -5.04144E+00 -5.07744E+00 -5.11233E+00 -5.14619E+00 -5.17906E+00 -5.21101E+00 -5.24208E+00 -5.27232E+00
  -5.30178E+00 -5.33050E+00 -5.35853E+00 -5.38588E+00 -5.41260E+00 -5.43871E+00 -5.46426E+00 -5.48926E+00 -5.51375E+00 -5.53773E+00
  -5.56125E+00 -5.58431E+00 -5.60695E+00 -5.62918E+00 -5.65101E+00 -5.67247E+00 -5.69356E+00 -5.71432E+00 -5.73475E+00 -5.75486E+00
  -5.77467E+00 -5.79419E+00 -5.81344E+00 -5.83242E+00 -5.85115E+00 -5.86964E+00 -5.88790E+00 -5.90593E+00 -5.92375E+00 -5.94137E+00
  -5.95881E+00 -5.97605E+00 -5.99313E+00 -6.01003E+00 -6.02679E+00 -6.04340E+00 -6.05988E+00 -6.07622E+00
 NY background values follow
    -3.220E+00   -3.227E+00   -3.235E+00   -3.242E+00   -3.250E+00   -3.257E+00   -3.265E+00   -3.272E+00   -3.280E+00   -3.288E+00
    -3.295E+00   -3.303E+00   -3.310E+00   -3.318E+00   -3.325E+00   -3.333E+00   -3.340E+00   -3.348E+00   -3.355E+00   -3.363E+00
    -3.370E+00   -3.378E+00   -3.385E+00   -3.393E+00   -3.400E+00   -3.408E+00   -3.415E+00   -3.423E+00   -3.430E+00   -3.438E+00
    -3.445E+00   -3.453E+00   -3.460E+00   -3.468E+00   -3.475E+00   -3.483E+00   -3.490E+00   -3.498E+00   -3.505E+00   -3.513E+00
    -3.521E+00   -3.528E+00   -3.536E+00   -3.543E+00   -3.551E+00   -3.558E+00   -3.566E+00   -3.573E+00   -3.581E+00   -3.588E+00
    -3.596E+00   -3.603E+00   -3.611E+00   -3.618E+00   -3.626E+00   -3.633E+00   -3.641E+00   -3.648E+00   -3.656E+00   -3.663E+00
    -3.671E+00   -3.678E+00   -3.686E+00   -3.693E+00   -3.701E+00   -3.708E+00   -3.716E+00   -3.723E+00   -3.731E+00   -3.738E+00
    -3.746E+00   -3.753E+00   -3.761E+00   -3.768E+00   -3.776E+00   -3.783E+00   -3.791E+00   -3.798E+00   -3.806E+00   -3.813E+00
    -3.821E+00   -3.828E+00   -3.836E+00   -3.843E+00   -3.851E+00   -3.858E+00   -3.866E+00   -3.873E+00   -3.881E+00   -3.888E+00
    -3.896E+00   -3.903E+00   -3.911E+00   -3.918E+00   -3.926E+00   -3.933E+00   -3.941E+00   -3.948E+00   -3.956E+00   -3.963E+00
    -3.971E+00   -3.978E+00   -3.986E+00   -3.993E+00   -4.001E+00   -4.008E+00   -4.016E+00   -4.023E+00   -4.031E+00   -4.038E+00
    -4.046E+00   -4.053E+00   -4.061E+00   -4.068E+00   -4.075E+00   -4.083E+00   -4.090E+00   -4.098E+00   -4.105E+00   -4.113E+00
    -4.120E+00   -4.128E+00   -4.135E+00   -4.143E+00   -4.150E+00   -4.158E+00   -4.165E+00   -4.173E+00   -4.180E+00   -4.188E+00
    -4.195E+00   -4.203E+00   -4.210E+00   -4.218E+00   -4.225E+00   -4.233E+00   -4.240E+00   -4.248E+00   -4.255E+00   -4.263E+00
    -4.270E+00   -4.277E+00   -4.285E+00   -4.292E+00   -4.300E+00   -4.307E+00   -4.315E+00   -4.322E+00   -4.330E+00   -4.337E+00
    -4.345E+00   -4.352E+00   -4.360E+00   -4.367E+00   -4.375E+00   -4.382E+00   -4.390E+00   -4.397E+00   -4.404E+00   -4.412E+00
    -4.419E+00   -4.427E+00   -4.434E+00   -4.442E+00   -4.449E+00   -4.457E+00   -4.464E+00   -4.472E+00   -4.479E+00   -4.487E+00
    -4.494E+00   -4.501E+00   -4.509E+00   -4.516E+00   -4.524E+00   -4.531E+00   -4.539E+00   -4.546E+00   -4.554E+00   -4.561E+00
    -4.569E+00   -4.576E+00   -4.584E+00   -4.591E+00   -4.598E+00   -4.606E+00   -4.613E+00   -4.621E+00   -4.628E+00   -4.636E+00
    -4.643E+00   -4.651E+00   -4.658E+00   -4.666E+00   -4.673E+00   -4.680E+00   -4.688E+00   -4.695E+00   -4.703E+00   -4.710E+00
    -4.718E+00   -4.725E+00   -4.733E+00   -4.740E+00   -4.747E+00   -4.755E+00   -4.762E+00   -4.770E+00   -4.777E+00   -4.785E+00
    -4.792E+00   -4.800E+00   -4.807E+00   -4.814E+00   -4.822E+00   -4.829E+00   -4.837E+00   -4.844E+00   -4.852E+00   -4.859E+00
    -4.866E+00   -4.874E+00   -4.881E+00   -4.889E+00   -4.896E+00   -4.904E+00   -4.911E+00   -4.919E+00   -4.926E+00   -4.933E+00
    -4.941E+00   -4.948E+00   -4.956E+00   -4.963E+00   -4.971E+00   -4.978E+00   -4.985E+00   -4.993E+00   -5.000E+00   -5.008E+00
    -5.015E+00   -5.023E+00   -5.030E+00   -5.037E+00   -5.045E+00   -5.052E+00   -5.060E+00   -5.067E+00   -5.074E+00   -5.082E+00
    -5.089E+00   -5.097E+00   -5.104E+00   -5.112E+00   -5.119E+00   -5.126E+00   -5.134E+00   -5.141E+00   -5.149E+00   -5.156E+00
    -5.163E+00   -5.171E+00   -5.178E+00   -5.186E+00   -5.193E+00   -5.201E+00   -5.208E+00   -5.215E+00   -5.223E+00   -5.230E+00
    -5.238E+00   -5.245E+00   -5.252E+00   -5.260E+00   -5.267E+00   -5.275E+00   -5.282E+00   -5.289E+00   -5.297E+00   -5.304E+00
    -5.312E+00   -5.319E+00   -5.326E+00   -5.334E+00   -5.341E+00   -5.349E+00   -5.356E+00   -5.363E+00   -5.371E+00   -5.378E+00
    -5.386E+00   -5.393E+00   -5.400E+00   -5.408E+00   -5.415E+00   -5.423E+00   -5.430E+00   -5.437E+00   -5.445E+00   -5.452E+00
    -5.460E+00   -5.467E+00   -5.474E+00   -5.482E+00   -5.489E+00   -5.496E+00   -5.504E+00   -5.511E+00   -5.519E+00   -5.526E+00
    -5.533E+00   -5.541E+00   -5.548E+00   -5.556E+00   -5.563E+00   -5.570E+00   -5.578E+00   -5.585E+00   -5.592E+00   -5.600E+00
    -5.607E+00   -5.615E+00   -5.622E+00   -5.629E+00   -5.637E+00   -5.644E+00   -5.651E+00   -5.659E+00   -5.666E+00   -5.674E+00
    -5.681E+00   -5.688E+00   -5.696E+00   -5.703E+00   -5.710E+00   -5.718E+00   -5.725E+00   -5.732E+00   -5.740E+00   -5.747E+00
    -5.755E+00   -5.762E+00   -5.769E+00   -5.777E+00   -5.784E+00   -5.791E+00   -5.799E+00   -5.806E+00   -5.813E+00   -5.821E+00
    -5.828E+00   -5.836E+00   -5.843E+00   -5.850E+00   -5.858E+00   -5.865E+00   -5.872E+00   -5.880E+00   -5.887E+00   -5.894E+00
    -5.902E+00   -5.909E+00   -5.916E+00   -5.924E+00   -5.931E+00   -5.938E+00   -5.946E+00   -5.953E+00   -5.960E+00   -5.968E+00
    -5.975E+00   -5.982E+00   -5.990E+00   -5.997E+00   -6.004E+00   -6.012E+00   -6.019E+00   -6.026E+00   -6.034E+00   -6.041E+00
    -6.048E+00   -6.056E+00   -6.063E+00   -6.070E+00   -6.078E+00   -6.085E+00   -6.092E+00   -6.100E+00   -6.107E+00   -6.114E+00
    -6.122E+00   -6.129E+00   -6.136E+00   -6.144E+00   -6.151E+00   -6.158E+00   -6.166E+00   -6.173E+00   -6.180E+00   -6.188E+00
    -6.195E+00   -6.202E+00   -6.210E+00   -6.217E+00   -6.224E+00   -6.232E+00   -6.239E+00   -6.246E+00   -6.254E+00   -6.261E+00
    -6.268E+00   -6.275E+00   -6.283E+00   -6.290E+00   -6.297E+00   -6.305E+00   -6.312E+00   -6.319E+00   -6.327E+00   -6.334E+00
    -6.341E+00   -6.348E+00   -6.356E+00   -6.363E+00   -6.370E+00   -6.378E+00   -6.385E+00   -6.392E+00   -6.400E+00   -6.407E+00
    -6.414E+00   -6.421E+00   -6.429E+00   -6.436E+00   -6.443E+00   -6.451E+00   -6.458E+00   -6.465E+00   -6.473E+00   -6.480E+00
    -6.487E+00   -6.494E+00   -6.502E+00   -6.509E+00   -6.516E+00   -6.524E+00   -6.531E+00   -6.538E+00   -6.545E+00   -6.553E+00
    -6.560E+00   -6.567E+00   -6.574E+00   -6.582E+00   -6.589E+00   -6.596E+00   -6.604E+00   -6.611E+00   -6.618E+00   -6.625E+00
    -6.633E+00   -6.640E+00   -6.647E+00   -6.654E+00   -6.662E+00   -6.669E+00   -6.676E+00   -6.684E+00   -6.691E+00   -6.698E+00
    -6.705E+00   -6.713E+00   -6.720E+00   -6.727E+00   -6.734E+00   -6.742E+00   -6.749E+00   -6.756E+00   -6.763E+00   -6.771E+00
    -6.778E+00   -6.785E+00   -6.792E+00   -6.800E+00   -6.807E+00   -6.814E+00   -6.821E+00   -6.829E+00   -6.836E+00   -6.843E+00
    -6.850E+00   -6.858E+00   -6.865E+00   -6.872E+00   -6.879E+00   -6.887E+00   -6.894E+00   -6.901E+00
 Asp      Conc. = 8.35E+01
