 LCModel (Version 6.3-1L) Copyright: S.W. Provencher.          Ref.: Magn. Reson. Med. 30:672-679 (1993).                
 Slice#3 Row#11 Col#7  K_02_press_1_raw_act
 36 lines in following concentration table = NCONC+1
    Conc.  %SD /Cr+PCr  Metabolite                                         
  214.533  82% 9.7E-02 Ala                                                 
    0.000 999%   0.000 Asp                                                 
  537.768  65%   0.242 Cr                                                  
 1.68E+03  21%   0.758 PCr                                                 
   17.394 999% 7.8E-03 GABA                                                
    0.000 999%   0.000 Glc                                                 
 2.25E+03  19%   1.016 Gln                                                 
 1.93E+03  25%   0.871 Glu                                                 
  490.533   4%   0.221 GPC                                                 
    0.000 999%   0.000 PCh                                                 
  769.478  12%   0.347 GSH                                                 
  927.556  30%   0.418 Ins                                                 
  166.788 125% 7.5E-02 Lac                                                 
 2.31E+03   7%   1.040 NAA                                                 
  365.437  54%   0.165 NAAG                                                
    0.000 999%   0.000 Scyllo                                              
    0.000 999%   0.000 Tau                                                 
    0.000 999%   0.000 -CrCH2                                              
  490.533   4%   0.221 GPC+PCh                                             
 2.67E+03   4%   1.205 NAA+NAAG                                            
 2.22E+03   3%   1.000 Cr+PCr                                              
 4.19E+03  19%   1.887 Glu+Gln                                             
    0.000 999%   0.000 Lip13a                                              
  214.951  73% 9.7E-02 Lip13b                                              
    0.000 999%   0.000 Lip09                                               
 1.38E+03  14%   0.620 MM09                                                
   47.796 138% 2.2E-02 Lip20                                               
 3.36E+03  12%   1.516 MM20                                                
  406.904  38%   0.183 MM12                                                
 1.93E+03  18%   0.869 MM14                                                
 1.02E+03  26%   0.460 MM17                                                
  214.951  73% 9.7E-02 Lip13a+Lip13b                                       
 2.55E+03  15%   1.149 MM14+Lip13a+Lip13b+MM12                             
 1.38E+03  14%   0.620 MM09+Lip09                                          
 3.41E+03  12%   1.537 MM20+Lip20                                          
   6 lines in following misc. output table
  FWHM = 0.076 ppm    S/N =  12                                            
  Data shift = 0.054 ppm                                                   
  Ph:   8 deg      -0.6 deg/ppm                                            
  alphaB,S = 7.7E-01,   9.5E+01                                            
   14 spline knots.   Ns =10(1)                                            
  (17) 8 infls.   (13) 1 extrs.                                            
  498 points on ppm-axis = NY
      4.000000     3.992357     3.984714     3.977070     3.969427     3.961784     3.954141     3.946497     3.938854     3.931211
      3.923568     3.915925     3.908281     3.900638     3.892995     3.885352     3.877708     3.870065     3.862422     3.854779
      3.847136     3.839492     3.831849     3.824206     3.816563     3.808919     3.801276     3.793633     3.785990     3.778347
      3.770703     3.763060     3.755417     3.747774     3.740130     3.732487     3.724844     3.717201     3.709558     3.701914
      3.694271     3.686628     3.678985     3.671341     3.663698     3.656055     3.648412     3.640769     3.633125     3.625482
      3.617839     3.610196     3.602552     3.594909     3.587266     3.579623     3.571980     3.564336     3.556693     3.549050
      3.541407     3.533763     3.526120     3.518477     3.510834     3.503191     3.495547     3.487904     3.480261     3.472618
      3.464974     3.457331     3.449688     3.442045     3.434402     3.426758     3.419115     3.411472     3.403829     3.396185
      3.388542     3.380899     3.373256     3.365613     3.357969     3.350326     3.342683     3.335040     3.327396     3.319753
      3.312110     3.304467     3.296824     3.289180     3.281537     3.273894     3.266251     3.258607     3.250964     3.243321
      3.235678     3.228034     3.220391     3.212748     3.205105     3.197462     3.189818     3.182175     3.174532     3.166889
      3.159245     3.151602     3.143959     3.136316     3.128673     3.121029     3.113386     3.105743     3.098100     3.090456
      3.082813     3.075170     3.067527     3.059884     3.052240     3.044597     3.036954     3.029311     3.021667     3.014024
      3.006381     2.998738     2.991095     2.983451     2.975808     2.968165     2.960522     2.952878     2.945235     2.937592
      2.929949     2.922306     2.914662     2.907019     2.899376     2.891733     2.884089     2.876446     2.868803     2.861160
      2.853517     2.845873     2.838230     2.830587     2.822944     2.815300     2.807657     2.800014     2.792371     2.784728
      2.777084     2.769441     2.761798     2.754155     2.746511     2.738868     2.731225     2.723582     2.715939     2.708295
      2.700652     2.693009     2.685366     2.677722     2.670079     2.662436     2.654793     2.647150     2.639506     2.631863
      2.624220     2.616577     2.608933     2.601290     2.593647     2.586004     2.578361     2.570717     2.563074     2.555431
      2.547788     2.540144     2.532501     2.524858     2.517215     2.509572     2.501928     2.494285     2.486642     2.478999
      2.471355     2.463712     2.456069     2.448426     2.440783     2.433139     2.425496     2.417853     2.410210     2.402566
      2.394923     2.387280     2.379637     2.371994     2.364350     2.356707     2.349064     2.341421     2.333777     2.326134
      2.318491     2.310848     2.303205     2.295561     2.287918     2.280275     2.272632     2.264988     2.257345     2.249702
      2.242059     2.234416     2.226772     2.219129     2.211486     2.203843     2.196199     2.188556     2.180913     2.173270
      2.165627     2.157983     2.150340     2.142697     2.135054     2.127410     2.119767     2.112124     2.104481     2.096838
      2.089194     2.081551     2.073908     2.066265     2.058621     2.050978     2.043335     2.035692     2.028049     2.020405
      2.012762     2.005119     1.997476     1.989833     1.982190     1.974546     1.966903     1.959260     1.951617     1.943974
      1.936331     1.928688     1.921045     1.913402     1.905759     1.898115     1.890472     1.882829     1.875186     1.867543
      1.859900     1.852257     1.844614     1.836971     1.829327     1.821684     1.814041     1.806398     1.798755     1.791112
      1.783469     1.775826     1.768183     1.760540     1.752896     1.745253     1.737610     1.729967     1.722324     1.714681
      1.707038     1.699395     1.691752     1.684108     1.676465     1.668822     1.661179     1.653536     1.645893     1.638250
      1.630607     1.622964     1.615321     1.607677     1.600034     1.592391     1.584748     1.577105     1.569462     1.561819
      1.554176     1.546533     1.538890     1.531246     1.523603     1.515960     1.508317     1.500674     1.493031     1.485388
      1.477745     1.470102     1.462458     1.454815     1.447172     1.439529     1.431886     1.424243     1.416600     1.408957
      1.401314     1.393671     1.386027     1.378384     1.370741     1.363098     1.355455     1.347812     1.340169     1.332526
      1.324883     1.317240     1.309596     1.301953     1.294310     1.286667     1.279024     1.271381     1.263738     1.256095
      1.248452     1.240808     1.233165     1.225522     1.217879     1.210236     1.202593     1.194950     1.187307     1.179664
      1.172021     1.164377     1.156734     1.149091     1.141448     1.133805     1.126162     1.118519     1.110876     1.103233
      1.095590     1.087946     1.080303     1.072660     1.065017     1.057374     1.049731     1.042088     1.034445     1.026802
      1.019158     1.011515     1.003872     0.996229     0.988586     0.980943     0.973300     0.965657     0.958014     0.950371
      0.942727     0.935084     0.927441     0.919798     0.912155     0.904512     0.896869     0.889226     0.881583     0.873940
      0.866296     0.858653     0.851010     0.843367     0.835724     0.828081     0.820438     0.812795     0.805152     0.797508
      0.789865     0.782222     0.774579     0.766936     0.759293     0.751650     0.744007     0.736364     0.728721     0.721077
      0.713434     0.705791     0.698148     0.690505     0.682862     0.675219     0.667576     0.659933     0.652290     0.644646
      0.637003     0.629360     0.621717     0.614074     0.606431     0.598788     0.591145     0.583502     0.575858     0.568215
      0.560572     0.552929     0.545286     0.537643     0.530000     0.522357     0.514714     0.507071     0.499427     0.491784
      0.484141     0.476498     0.468855     0.461212     0.453569     0.445925     0.438282     0.430639     0.422996     0.415353
      0.407710     0.400067     0.392424     0.384780     0.377137     0.369494     0.361851     0.354208     0.346565     0.338922
      0.331278     0.323635     0.315992     0.308349     0.300706     0.293063     0.285420     0.277777     0.270133     0.262490
      0.254847     0.247204     0.239561     0.231918     0.224275     0.216631     0.208988     0.201345
 NY phased data points follow
   3.63904E+01  3.70538E+01  4.10177E+01  4.35284E+01  4.68859E+01  4.78081E+01  5.85742E+01  6.27473E+01  6.57299E+01  6.71462E+01
   6.49317E+01  6.33761E+01  6.64318E+01  6.27597E+01  5.55147E+01  5.16786E+01  4.57664E+01  3.97838E+01  3.79585E+01  3.72440E+01
   3.35506E+01  3.32346E+01  3.33187E+01  3.28098E+01  3.18349E+01  3.34295E+01  3.46841E+01  3.74559E+01  3.56084E+01  3.80976E+01
   3.99617E+01  3.86161E+01  3.64049E+01  3.82646E+01  3.49126E+01  3.07849E+01  3.52676E+01  3.35625E+01  2.71159E+01  2.85234E+01
   3.36426E+01  2.78915E+01  3.40291E+01  3.07481E+01  3.26665E+01  3.31401E+01  3.17564E+01  2.91901E+01  2.81316E+01  2.92691E+01
   2.77242E+01  2.20451E+01  2.53271E+01  2.26604E+01  2.18772E+01  2.24799E+01  2.49066E+01  2.13361E+01  2.20208E+01  2.20558E+01
   1.80792E+01  1.67419E+01  1.72285E+01  1.38296E+01  1.48915E+01  1.61639E+01  1.03958E+01  1.21632E+01  9.71394E+00  8.95968E+00
   1.29789E+01  9.54798E+00  1.20853E+01  8.01387E+00  1.25580E+01  1.07800E+01  7.61998E+00  1.26856E+01  1.25597E+01  1.28145E+01
   9.64627E+00  8.14656E+00  1.05455E+01  1.01045E+01  7.41777E+00  8.07005E+00  1.02653E+01  1.04467E+01  8.78773E+00  1.27533E+01
   1.08809E+01  9.39643E+00  1.29087E+01  1.15469E+01  1.46820E+01  1.47846E+01  1.40617E+01  1.93781E+01  2.75628E+01  2.99474E+01
   3.51411E+01  3.69847E+01  3.92957E+01  3.52040E+01  3.88687E+01  3.73844E+01  3.63286E+01  2.96787E+01  2.35142E+01  2.31206E+01
   2.10051E+01  1.65002E+01  1.42568E+01  1.51721E+01  1.28585E+01  1.12845E+01  1.34797E+01  1.58763E+01  1.51409E+01  1.36006E+01
   2.22962E+01  2.79546E+01  3.19907E+01  3.89850E+01  4.65968E+01  5.21948E+01  5.48000E+01  5.83553E+01  5.63933E+01  5.19517E+01
   4.93363E+01  4.05913E+01  3.49176E+01  3.20202E+01  2.87202E+01  2.15582E+01  1.71519E+01  1.16361E+01  1.46978E+01  1.28396E+01
   9.46266E+00  1.38818E+01  1.23423E+01  6.43314E+00  7.47906E+00  1.05187E+01  5.20986E+00  9.42197E+00  6.67048E+00  3.41523E+00
   5.84104E+00  4.63956E+00  8.26472E+00  5.73089E+00  2.50687E+00  6.34740E+00  3.23856E+00  4.55014E+00  3.11081E+00  3.89696E+00
  -8.33245E-01  8.16391E-01 -5.60174E-01  4.05712E+00 -9.20492E-01 -5.30777E-01  3.11612E+00 -7.66832E-01  2.27130E-01 -5.44655E+00
  -2.63355E+00 -2.82594E+00 -6.21802E+00 -4.15608E+00 -5.54954E+00 -4.77808E+00 -8.00683E+00 -7.39142E+00 -1.00801E+01 -8.45176E+00
  -9.86467E+00 -1.02531E+01 -8.04085E+00 -8.08964E+00 -7.24643E+00 -4.42334E+00 -6.51616E+00 -4.86414E-01 -1.66033E+00 -1.01693E+00
   2.78321E+00  1.04401E+00  2.82003E+00  2.87329E-01  6.59315E+00  3.84438E+00  3.51386E+00  3.29571E+00  2.31056E+00 -4.19206E-01
   3.22297E+00  8.62938E-01  1.43683E+00  1.64276E+00  1.70349E-02  4.09100E+00 -2.00582E+00 -4.12770E-01 -3.42388E+00 -4.76758E-01
  -3.66596E+00  1.96922E+00  1.07738E+00  4.76420E+00  4.25819E+00  5.48782E+00  8.23847E+00  5.00842E+00  8.91326E+00  5.23238E+00
   1.84541E+00  2.66380E+00  3.48944E+00  3.72448E+00  3.84769E+00  8.06086E+00  7.22287E+00  5.58233E+00  9.33538E+00  8.13976E+00
   8.81102E+00  8.05338E+00  6.43853E+00  6.67926E+00  8.60617E+00  3.32119E+00  5.69923E+00  5.69068E+00  5.03927E+00  4.82214E+00
   5.30151E+00  2.62586E+00  5.03878E+00  9.96167E+00  3.56101E+00  9.10265E+00  1.49107E+01  1.19003E+01  1.83436E+01  1.98893E+01
   2.26734E+01  2.39988E+01  2.61735E+01  3.47402E+01  4.09629E+01  4.94935E+01  5.57358E+01  5.46783E+01  6.23980E+01  7.00306E+01
   7.02598E+01  7.28879E+01  6.39171E+01  5.81023E+01  4.62710E+01  3.70311E+01  3.02337E+01  2.28705E+01  1.94628E+01  1.29877E+01
   1.46172E+01  1.47167E+01  9.15953E+00  9.89192E+00  1.15033E+01  7.10905E+00  1.03610E+01  6.90237E+00  1.02470E+01  8.73867E+00
   6.60393E+00  5.52590E+00  5.04615E+00  7.65599E+00  6.57156E+00  5.78912E+00  6.19383E+00  4.11774E+00  3.70377E+00  4.74467E-02
   4.40245E+00  6.39441E+00  2.52161E+00  6.66366E+00  4.29878E+00  5.83781E+00  5.52012E+00  4.70219E+00  2.51946E+00  5.71028E+00
   3.18408E+00  9.30416E+00  2.38282E+00  7.00706E+00  1.00781E+01  6.67571E+00  5.53643E+00  7.30922E+00  8.98423E+00  9.08433E+00
   7.85296E+00  6.78911E+00  7.14435E+00  5.65693E+00  7.09406E+00  6.56913E+00  7.13521E+00  9.14007E+00  9.37515E+00  8.80777E+00
   8.42198E+00  1.34802E+01  7.79549E+00  9.99626E+00  1.02491E+01  1.14332E+01  1.17308E+01  6.13625E+00  1.29329E+01  1.12801E+01
   9.40804E+00  8.58470E+00  8.19581E+00  1.26793E+01  7.41284E+00  1.04398E+01  9.60653E+00  1.05859E+01  1.21589E+01  1.13753E+01
   9.54023E+00  1.06235E+01  7.93578E+00  9.41529E+00  6.04833E+00  4.44413E+00  6.69289E+00  6.43215E+00  6.40849E+00  2.64865E+00
   9.26714E+00  1.99790E+00  6.97199E+00  4.28168E+00  7.45320E+00  6.12213E+00  1.08214E+01  4.28810E+00  2.63232E+00  6.23258E+00
   4.43138E+00  5.65071E+00  6.47372E+00  5.75184E+00  6.01687E+00  7.49661E+00  7.05082E+00  8.12622E+00  3.11356E+00  4.83254E+00
   4.63542E+00  2.07979E+00  2.03286E+00  3.79768E+00  7.57610E-01 -6.91411E-01  1.09924E+00 -7.38536E-01  2.91649E-01  3.02583E+00
   1.99310E+00  1.06106E+00 -3.16508E+00  4.32666E+00  6.87220E-01  1.39484E+00  2.82099E+00  4.75158E+00  3.79320E+00  4.70866E+00
   9.05331E+00  9.53060E+00  9.73549E+00  2.08478E+00  8.76474E+00  7.58690E+00  7.52716E+00  5.50980E+00  5.22775E+00  4.74686E+00
   8.78339E+00  5.95845E+00  1.14584E+01  9.93074E+00  7.82935E+00  7.04000E+00  7.41361E+00  1.28983E+01  4.90880E+00  7.44756E+00
   8.79009E+00  8.00314E+00  8.21956E+00  9.06655E+00  1.01068E+01  9.80039E+00  5.84114E+00  9.52838E+00  5.32447E+00  5.32243E+00
   5.79476E+00  6.95224E+00  5.08367E+00  3.57229E+00  4.23370E+00  2.57422E+00  3.92545E+00  2.01836E+00  4.65520E-01  4.39355E+00
   4.83775E-01  3.62709E+00  1.92472E+00 -5.26500E-01  4.72375E+00  2.33902E+00  5.44903E+00  2.51998E+00  2.70089E+00  3.20658E+00
   2.08329E+00  1.17712E+00  2.46733E+00 -5.32177E-01 -1.13224E-01  4.59527E+00 -1.21585E+00  2.84976E+00 -1.23808E+00  1.29026E+00
   1.63049E+00 -8.01217E-01  2.21248E+00  3.74634E+00  2.75622E-01 -1.18279E+00  5.02798E-01  4.34367E+00 -3.53002E-01  2.29027E+00
   1.08542E-01  7.02730E-01  2.26567E+00  2.17033E+00  4.96127E-01  1.10316E+00  1.31567E+00  1.20790E+00 -1.41347E+00  2.42051E+00
   8.02755E+00  5.15597E+00  2.56712E+00  3.77600E+00  3.41372E+00  3.57927E+00  4.63319E+00  2.31644E+00  4.70547E+00  3.29992E+00
   1.54839E+00  3.50918E-01  2.93657E+00 -1.25741E+00  1.96376E+00  2.01346E+00  3.04290E+00  5.32654E+00  2.63968E-01  4.22340E+00
   1.24884E+00  4.87893E+00  2.87377E+00 -5.86452E+00  2.88219E+00  1.53505E+00  1.20585E+00  1.08421E+00
 NY points of the fit to the data follow
   3.50610E+01  3.71535E+01  3.94195E+01  4.23867E+01  4.61088E+01  5.01417E+01  5.40752E+01  5.78695E+01  6.12689E+01  6.36086E+01
   6.44039E+01  6.35434E+01  6.10943E+01  5.72166E+01  5.27085E+01  4.85373E+01  4.48367E+01  4.13113E+01  3.81779E+01  3.60307E+01
   3.46844E+01  3.34328E+01  3.24482E+01  3.22426E+01  3.29038E+01  3.38978E+01  3.49207E+01  3.61103E+01  3.76946E+01  3.92923E+01
   4.04125E+01  4.06654E+01  4.00002E+01  3.83510E+01  3.57668E+01  3.29753E+01  3.08690E+01  2.94156E+01  2.83299E+01  2.79213E+01
   2.81712E+01  2.82539E+01  2.79203E+01  2.78663E+01  2.79779E+01  2.79859E+01  2.78406E+01  2.74672E+01  2.68888E+01  2.61090E+01
   2.50834E+01  2.39128E+01  2.29948E+01  2.23092E+01  2.16365E+01  2.10368E+01  2.06895E+01  2.03995E+01  1.99364E+01  1.94714E+01
   1.90986E+01  1.87384E+01  1.83043E+01  1.78242E+01  1.73913E+01  1.70568E+01  1.67920E+01  1.65764E+01  1.64303E+01  1.63129E+01
   1.61540E+01  1.59524E+01  1.57044E+01  1.54299E+01  1.51331E+01  1.48012E+01  1.44354E+01  1.40397E+01  1.36054E+01  1.31449E+01
   1.26675E+01  1.21860E+01  1.16740E+01  1.11584E+01  1.06801E+01  1.02393E+01  9.87588E+00  9.57794E+00  9.36624E+00  9.26977E+00
   9.29112E+00  9.41779E+00  9.79270E+00  1.13753E+01  1.40560E+01  1.61146E+01  1.85781E+01  2.20038E+01  2.58152E+01  2.95192E+01
   3.30943E+01  3.65574E+01  3.93352E+01  4.06818E+01  4.03645E+01  3.84673E+01  3.50053E+01  3.03217E+01  2.58061E+01  2.22152E+01
   1.89217E+01  1.58531E+01  1.38280E+01  1.27688E+01  1.12693E+01  9.60830E+00  9.58949E+00  1.17440E+01  1.56077E+01  1.90230E+01
   2.30966E+01  2.86110E+01  3.47833E+01  4.09181E+01  4.69433E+01  5.26111E+01  5.70566E+01  5.93591E+01  5.90882E+01  5.62583E+01
   5.10471E+01  4.40304E+01  3.71073E+01  3.12667E+01  2.58336E+01  2.07933E+01  1.72003E+01  1.49810E+01  1.24488E+01  9.84874E+00
   8.90134E+00  8.69905E+00  8.61959E+00  8.50839E+00  8.20678E+00  7.67575E+00  7.12954E+00  6.66628E+00  6.20348E+00  5.75787E+00
   5.30617E+00  4.76916E+00  4.26310E+00  3.76762E+00  3.34412E+00  3.03558E+00  2.72493E+00  2.40301E+00  2.12472E+00  1.83334E+00
   1.49057E+00  1.16334E+00  8.93529E-01  6.49205E-01  4.06915E-01  1.14485E-01 -3.12928E-01 -8.19188E-01 -1.26893E+00 -1.72550E+00
  -2.19511E+00 -2.66079E+00 -3.02822E+00 -3.31342E+00 -3.57345E+00 -3.86249E+00 -4.17601E+00 -4.38764E+00 -4.44657E+00 -4.39696E+00
  -4.28755E+00 -4.09860E+00 -3.80285E+00 -3.41625E+00 -2.93373E+00 -2.42701E+00 -1.90831E+00 -1.29269E+00 -8.28610E-01 -4.83962E-01
  -8.73376E-02  1.92366E-01  2.67749E-01  2.41476E-01  4.54809E-01  7.98385E-01  1.26153E+00  1.99098E+00  2.93871E+00  3.55432E+00
   3.97443E+00  4.38636E+00  4.16460E+00  3.10013E+00  1.66713E+00  2.57314E-01 -9.13242E-01 -2.19829E+00 -3.05917E+00 -2.77298E+00
  -1.61930E+00 -1.88409E-01  1.34302E+00  3.05463E+00  4.50456E+00  5.10146E+00  5.09641E+00  4.66431E+00  3.68128E+00  2.49045E+00
   1.83452E+00  1.53380E+00  1.34587E+00  1.69572E+00  2.58505E+00  3.56027E+00  4.46849E+00  5.12124E+00  5.68599E+00  6.13170E+00
   6.48206E+00  6.73019E+00  6.80969E+00  7.15504E+00  7.70527E+00  8.14037E+00  8.49937E+00  8.74336E+00  8.80972E+00  8.58201E+00
   7.90058E+00  6.97527E+00  6.29417E+00  6.05780E+00  6.14924E+00  6.93047E+00  8.72768E+00  1.06116E+01  1.23429E+01  1.46905E+01
   1.92437E+01  2.51806E+01  2.98876E+01  3.54663E+01  4.23378E+01  4.91731E+01  5.52303E+01  6.05814E+01  6.52829E+01  6.84265E+01
   6.91132E+01  6.73106E+01  6.30891E+01  5.62665E+01  4.76497E+01  3.97033E+01  3.32281E+01  2.69332E+01  2.12780E+01  1.77049E+01
   1.56126E+01  1.25842E+01  9.31248E+00  8.01810E+00  7.37670E+00  6.86110E+00  6.44712E+00  6.05608E+00  5.66637E+00  5.32215E+00
   5.02100E+00  4.75797E+00  4.54843E+00  4.39222E+00  4.26781E+00  4.16591E+00  4.09511E+00  4.06629E+00  4.08161E+00  4.12730E+00
   4.20345E+00  4.31830E+00  4.46479E+00  4.63098E+00  4.81100E+00  5.00235E+00  5.20207E+00  5.40537E+00  5.61133E+00  5.81558E+00
   6.01293E+00  6.20353E+00  6.38342E+00  6.54320E+00  6.68198E+00  6.80088E+00  6.90090E+00  6.98310E+00  7.05002E+00  7.10827E+00
   7.16524E+00  7.22448E+00  7.29352E+00  7.38101E+00  7.49587E+00  7.65106E+00  7.87043E+00  8.18813E+00  8.49528E+00  8.75632E+00
   9.06826E+00  9.38747E+00  9.64124E+00  9.80469E+00  9.87491E+00  9.92247E+00  9.94643E+00  9.81928E+00  9.61852E+00  9.44148E+00
   9.30735E+00  9.25233E+00  9.34228E+00  9.55493E+00  9.80833E+00  1.00764E+01  1.03544E+01  1.05709E+01  1.05401E+01  1.03111E+01
   1.00582E+01  9.75336E+00  9.33227E+00  8.78209E+00  8.20668E+00  7.74842E+00  7.24657E+00  6.63136E+00  6.10186E+00  5.70799E+00
   5.43874E+00  5.31729E+00  5.39098E+00  5.61472E+00  5.88411E+00  6.15351E+00  6.39409E+00  6.51336E+00  6.41969E+00  6.20039E+00
   5.95279E+00  5.65624E+00  5.29979E+00  4.91663E+00  4.58433E+00  4.30812E+00  4.00502E+00  3.72073E+00  3.50155E+00  3.32626E+00
   3.18215E+00  3.06210E+00  2.96147E+00  2.87728E+00  2.80797E+00  2.75303E+00  2.71279E+00  2.68819E+00  2.68059E+00  2.69159E+00
   2.72297E+00  2.77661E+00  2.85440E+00  2.95819E+00  3.08972E+00  3.25053E+00  3.44196E+00  3.66498E+00  3.92010E+00  4.20727E+00
   4.52570E+00  4.87378E+00  5.24894E+00  5.64759E+00  6.06504E+00  6.49546E+00  6.93199E+00  7.36681E+00  7.79135E+00  8.19658E+00
   8.57321E+00  8.91214E+00  9.20480E+00  9.44352E+00  9.62191E+00  9.73516E+00  9.78024E+00  9.75607E+00  9.66357E+00  9.50558E+00
   9.28676E+00  9.01327E+00  8.69250E+00  8.33271E+00  7.94266E+00  7.53124E+00  7.10711E+00  6.67838E+00  6.25241E+00  5.83560E+00
   5.43332E+00  5.04981E+00  4.68825E+00  4.35078E+00  4.03865E+00  3.75226E+00  3.49139E+00  3.25528E+00  3.04278E+00  2.85244E+00
   2.68267E+00  2.53177E+00  2.39807E+00  2.27990E+00  2.17569E+00  2.08396E+00  2.00337E+00  1.93267E+00  1.87078E+00  1.81672E+00
   1.76959E+00  1.72864E+00  1.69319E+00  1.66264E+00  1.63649E+00  1.61426E+00  1.59556E+00  1.58003E+00  1.56736E+00  1.55729E+00
   1.54958E+00  1.54402E+00  1.54040E+00  1.53856E+00  1.53836E+00  1.53967E+00  1.54237E+00  1.54635E+00  1.55150E+00  1.55774E+00
   1.56500E+00  1.57321E+00  1.58229E+00  1.59218E+00  1.60284E+00  1.61420E+00  1.62622E+00  1.63887E+00  1.65209E+00  1.66585E+00
   1.68012E+00  1.69487E+00  1.71007E+00  1.72569E+00  1.74171E+00  1.75810E+00  1.77484E+00  1.79190E+00  1.80929E+00  1.82696E+00
   1.84490E+00  1.86309E+00  1.88153E+00  1.90020E+00  1.91909E+00  1.93818E+00  1.95745E+00  1.97690E+00  1.99651E+00  2.01629E+00
   2.03622E+00  2.05629E+00  2.07649E+00  2.09682E+00  2.11727E+00  2.13785E+00  2.15854E+00  2.17935E+00
 NY background values follow
     2.870E+01    2.848E+01    2.825E+01    2.803E+01    2.780E+01    2.758E+01    2.735E+01    2.713E+01    2.690E+01    2.668E+01
     2.645E+01    2.623E+01    2.600E+01    2.578E+01    2.555E+01    2.533E+01    2.510E+01    2.488E+01    2.465E+01    2.443E+01
     2.420E+01    2.398E+01    2.375E+01    2.353E+01    2.331E+01    2.308E+01    2.286E+01    2.264E+01    2.242E+01    2.220E+01
     2.197E+01    2.175E+01    2.153E+01    2.131E+01    2.109E+01    2.087E+01    2.065E+01    2.044E+01    2.022E+01    2.000E+01
     1.978E+01    1.957E+01    1.935E+01    1.913E+01    1.892E+01    1.871E+01    1.849E+01    1.828E+01    1.807E+01    1.785E+01
     1.764E+01    1.743E+01    1.722E+01    1.702E+01    1.681E+01    1.660E+01    1.639E+01    1.619E+01    1.598E+01    1.578E+01
     1.558E+01    1.537E+01    1.517E+01    1.497E+01    1.477E+01    1.458E+01    1.438E+01    1.418E+01    1.399E+01    1.379E+01
     1.360E+01    1.341E+01    1.322E+01    1.303E+01    1.284E+01    1.265E+01    1.247E+01    1.228E+01    1.210E+01    1.191E+01
     1.173E+01    1.155E+01    1.137E+01    1.120E+01    1.102E+01    1.085E+01    1.067E+01    1.050E+01    1.033E+01    1.016E+01
     9.996E+00    9.830E+00    9.666E+00    9.503E+00    9.341E+00    9.182E+00    9.023E+00    8.866E+00    8.710E+00    8.556E+00
     8.404E+00    8.252E+00    8.103E+00    7.954E+00    7.807E+00    7.662E+00    7.518E+00    7.375E+00    7.234E+00    7.094E+00
     6.955E+00    6.818E+00    6.682E+00    6.548E+00    6.415E+00    6.283E+00    6.152E+00    6.023E+00    5.896E+00    5.769E+00
     5.644E+00    5.520E+00    5.398E+00    5.277E+00    5.157E+00    5.038E+00    4.921E+00    4.805E+00    4.691E+00    4.577E+00
     4.465E+00    4.354E+00    4.244E+00    4.136E+00    4.029E+00    3.923E+00    3.818E+00    3.715E+00    3.612E+00    3.511E+00
     3.411E+00    3.313E+00    3.215E+00    3.119E+00    3.024E+00    2.930E+00    2.838E+00    2.746E+00    2.656E+00    2.567E+00
     2.480E+00    2.393E+00    2.308E+00    2.223E+00    2.141E+00    2.059E+00    1.978E+00    1.899E+00    1.821E+00    1.744E+00
     1.668E+00    1.593E+00    1.520E+00    1.448E+00    1.377E+00    1.307E+00    1.238E+00    1.170E+00    1.104E+00    1.039E+00
     9.749E-01    9.121E-01    8.505E-01    7.900E-01    7.307E-01    6.725E-01    6.155E-01    5.597E-01    5.051E-01    4.516E-01
     3.992E-01    3.480E-01    2.980E-01    2.491E-01    2.014E-01    1.547E-01    1.091E-01    6.459E-02    2.113E-02   -2.129E-02
    -6.269E-02   -1.031E-01   -1.425E-01   -1.809E-01   -2.184E-01   -2.549E-01   -2.906E-01   -3.253E-01   -3.591E-01   -3.921E-01
    -4.241E-01   -4.554E-01   -4.858E-01   -5.154E-01   -5.443E-01   -5.723E-01   -5.996E-01   -6.262E-01   -6.520E-01   -6.771E-01
    -7.015E-01   -7.253E-01   -7.484E-01   -7.708E-01   -7.926E-01   -8.138E-01   -8.344E-01   -8.545E-01   -8.739E-01   -8.929E-01
    -9.113E-01   -9.291E-01   -9.465E-01   -9.634E-01   -9.799E-01   -9.959E-01   -1.011E+00   -1.027E+00   -1.041E+00   -1.056E+00
    -1.070E+00   -1.083E+00   -1.096E+00   -1.109E+00   -1.122E+00   -1.134E+00   -1.145E+00   -1.157E+00   -1.168E+00   -1.178E+00
    -1.189E+00   -1.199E+00   -1.208E+00   -1.218E+00   -1.227E+00   -1.236E+00   -1.244E+00   -1.252E+00   -1.260E+00   -1.268E+00
    -1.275E+00   -1.282E+00   -1.289E+00   -1.296E+00   -1.302E+00   -1.308E+00   -1.314E+00   -1.320E+00   -1.325E+00   -1.331E+00
    -1.336E+00   -1.340E+00   -1.345E+00   -1.350E+00   -1.354E+00   -1.358E+00   -1.362E+00   -1.366E+00   -1.369E+00   -1.373E+00
    -1.376E+00   -1.379E+00   -1.382E+00   -1.385E+00   -1.388E+00   -1.391E+00   -1.394E+00   -1.396E+00   -1.398E+00   -1.401E+00
    -1.403E+00   -1.405E+00   -1.407E+00   -1.408E+00   -1.410E+00   -1.412E+00   -1.413E+00   -1.414E+00   -1.415E+00   -1.417E+00
    -1.418E+00   -1.418E+00   -1.419E+00   -1.420E+00   -1.420E+00   -1.421E+00   -1.421E+00   -1.421E+00   -1.422E+00   -1.422E+00
    -1.422E+00   -1.421E+00   -1.421E+00   -1.421E+00   -1.421E+00   -1.420E+00   -1.419E+00   -1.419E+00   -1.418E+00   -1.417E+00
    -1.416E+00   -1.415E+00   -1.414E+00   -1.413E+00   -1.411E+00   -1.410E+00   -1.409E+00   -1.407E+00   -1.405E+00   -1.404E+00
    -1.402E+00   -1.400E+00   -1.398E+00   -1.396E+00   -1.394E+00   -1.392E+00   -1.389E+00   -1.387E+00   -1.384E+00   -1.381E+00
    -1.379E+00   -1.376E+00   -1.373E+00   -1.369E+00   -1.366E+00   -1.362E+00   -1.359E+00   -1.355E+00   -1.351E+00   -1.347E+00
    -1.343E+00   -1.339E+00   -1.334E+00   -1.329E+00   -1.325E+00   -1.320E+00   -1.314E+00   -1.309E+00   -1.304E+00   -1.298E+00
    -1.292E+00   -1.286E+00   -1.280E+00   -1.273E+00   -1.267E+00   -1.260E+00   -1.253E+00   -1.245E+00   -1.238E+00   -1.230E+00
    -1.222E+00   -1.214E+00   -1.206E+00   -1.197E+00   -1.189E+00   -1.180E+00   -1.170E+00   -1.161E+00   -1.151E+00   -1.141E+00
    -1.131E+00   -1.121E+00   -1.110E+00   -1.100E+00   -1.089E+00   -1.077E+00   -1.066E+00   -1.054E+00   -1.042E+00   -1.030E+00
    -1.017E+00   -1.005E+00   -9.919E-01   -9.787E-01   -9.653E-01   -9.516E-01   -9.377E-01   -9.236E-01   -9.092E-01   -8.946E-01
    -8.797E-01   -8.646E-01   -8.492E-01   -8.336E-01   -8.178E-01   -8.016E-01   -7.853E-01   -7.686E-01   -7.518E-01   -7.346E-01
    -7.172E-01   -6.996E-01   -6.817E-01   -6.635E-01   -6.451E-01   -6.264E-01   -6.075E-01   -5.882E-01   -5.688E-01   -5.491E-01
    -5.291E-01   -5.089E-01   -4.884E-01   -4.677E-01   -4.467E-01   -4.256E-01   -4.042E-01   -3.825E-01   -3.607E-01   -3.386E-01
    -3.164E-01   -2.939E-01   -2.713E-01   -2.484E-01   -2.254E-01   -2.021E-01   -1.787E-01   -1.551E-01   -1.314E-01   -1.074E-01
    -8.335E-02   -5.910E-02   -3.469E-02   -1.013E-02    1.457E-02    3.942E-02    6.440E-02    8.951E-02    1.148E-01    1.401E-01
     1.656E-01    1.912E-01    2.169E-01    2.427E-01    2.687E-01    2.947E-01    3.208E-01    3.470E-01    3.732E-01    3.996E-01
     4.260E-01    4.525E-01    4.791E-01    5.057E-01    5.324E-01    5.592E-01    5.860E-01    6.128E-01    6.397E-01    6.667E-01
     6.937E-01    7.207E-01    7.478E-01    7.749E-01    8.020E-01    8.292E-01    8.564E-01    8.836E-01    9.109E-01    9.382E-01
     9.655E-01    9.928E-01    1.020E+00    1.047E+00    1.075E+00    1.102E+00    1.130E+00    1.157E+00    1.184E+00    1.212E+00
     1.239E+00    1.266E+00    1.294E+00    1.321E+00    1.348E+00    1.375E+00    1.403E+00    1.430E+00    1.457E+00    1.484E+00
     1.512E+00    1.539E+00    1.566E+00    1.593E+00    1.620E+00    1.647E+00    1.674E+00    1.700E+00
 Ala      Conc. = 2.15E+02
