 LCModel (Version 6.3-1L) Copyright: S.W. Provencher.          Ref.: Magn. Reson. Med. 30:672-679 (1993).                
 Slice#1 Row#11 Col#9  K_02_press_1_raw_act
 36 lines in following concentration table = NCONC+1
    Conc.  %SD /Cr+PCr  Metabolite                                         
   49.449 114% 4.6E-02 Ala                                                 
    0.000 999%   0.000 Asp                                                 
  461.176  20%   0.432 Cr                                                  
  605.660  17%   0.568 PCr                                                 
    0.000 999%   0.000 GABA                                                
   51.051 206% 4.8E-02 Glc                                                 
  337.035  33%   0.316 Gln                                                 
 1.05E+03  13%   0.987 Glu                                                 
  236.814  27%   0.222 GPC                                                 
  122.089  52%   0.114 PCh                                                 
  132.480  32%   0.124 GSH                                                 
  965.810  15%   0.905 Ins                                                 
  105.951  56% 9.9E-02 Lac                                                 
 1.70E+03   4%   1.591 NAA                                                 
  470.463  13%   0.441 NAAG                                                
   46.300  37% 4.3E-02 Scyllo                                              
    0.000 999%   0.000 Tau                                                 
  219.860  31%   0.206 -CrCH2                                              
  358.904   4%   0.336 GPC+PCh                                             
 2.17E+03   3%   2.032 NAA+NAAG                                            
 1.07E+03   4%   1.000 Cr+PCr                                              
 1.39E+03  12%   1.303 Glu+Gln                                             
    0.000 999%   0.000 Lip13a                                              
    0.000 999%   0.000 Lip13b                                              
    0.000 999%   0.000 Lip09                                               
 1.22E+03  10%   1.146 MM09                                                
    1.081 999% 1.0E-03 Lip20                                               
 2.48E+03  10%   2.325 MM20                                                
  241.148  50%   0.226 MM12                                                
 1.06E+03  19%   0.996 MM14                                                
  697.350  25%   0.654 MM17                                                
    0.000 999%   0.000 Lip13a+Lip13b                                       
 1.30E+03  16%   1.222 MM14+Lip13a+Lip13b+MM12                             
 1.22E+03  10%   1.146 MM09+Lip09                                          
 2.48E+03  10%   2.326 MM20+Lip20                                          
   6 lines in following misc. output table
  FWHM = 0.031 ppm    S/N =  16                                            
  Data shift = 0.008 ppm                                                   
  Ph: -22 deg       0.4 deg/ppm                                            
  alphaB,S = 8.5E+01,   1.4E+01                                            
   14 spline knots.   Ns = 5(1)                                            
   5 inflections.     1 extrema                                            
  498 points on ppm-axis = NY
      4.000000     3.992357     3.984714     3.977070     3.969427     3.961784     3.954141     3.946497     3.938854     3.931211
      3.923568     3.915925     3.908281     3.900638     3.892995     3.885352     3.877708     3.870065     3.862422     3.854779
      3.847136     3.839492     3.831849     3.824206     3.816563     3.808919     3.801276     3.793633     3.785990     3.778347
      3.770703     3.763060     3.755417     3.747774     3.740130     3.732487     3.724844     3.717201     3.709558     3.701914
      3.694271     3.686628     3.678985     3.671341     3.663698     3.656055     3.648412     3.640769     3.633125     3.625482
      3.617839     3.610196     3.602552     3.594909     3.587266     3.579623     3.571980     3.564336     3.556693     3.549050
      3.541407     3.533763     3.526120     3.518477     3.510834     3.503191     3.495547     3.487904     3.480261     3.472618
      3.464974     3.457331     3.449688     3.442045     3.434402     3.426758     3.419115     3.411472     3.403829     3.396185
      3.388542     3.380899     3.373256     3.365613     3.357969     3.350326     3.342683     3.335040     3.327396     3.319753
      3.312110     3.304467     3.296824     3.289180     3.281537     3.273894     3.266251     3.258607     3.250964     3.243321
      3.235678     3.228034     3.220391     3.212748     3.205105     3.197462     3.189818     3.182175     3.174532     3.166889
      3.159245     3.151602     3.143959     3.136316     3.128673     3.121029     3.113386     3.105743     3.098100     3.090456
      3.082813     3.075170     3.067527     3.059884     3.052240     3.044597     3.036954     3.029311     3.021667     3.014024
      3.006381     2.998738     2.991095     2.983451     2.975808     2.968165     2.960522     2.952878     2.945235     2.937592
      2.929949     2.922306     2.914662     2.907019     2.899376     2.891733     2.884089     2.876446     2.868803     2.861160
      2.853517     2.845873     2.838230     2.830587     2.822944     2.815300     2.807657     2.800014     2.792371     2.784728
      2.777084     2.769441     2.761798     2.754155     2.746511     2.738868     2.731225     2.723582     2.715939     2.708295
      2.700652     2.693009     2.685366     2.677722     2.670079     2.662436     2.654793     2.647150     2.639506     2.631863
      2.624220     2.616577     2.608933     2.601290     2.593647     2.586004     2.578361     2.570717     2.563074     2.555431
      2.547788     2.540144     2.532501     2.524858     2.517215     2.509572     2.501928     2.494285     2.486642     2.478999
      2.471355     2.463712     2.456069     2.448426     2.440783     2.433139     2.425496     2.417853     2.410210     2.402566
      2.394923     2.387280     2.379637     2.371994     2.364350     2.356707     2.349064     2.341421     2.333777     2.326134
      2.318491     2.310848     2.303205     2.295561     2.287918     2.280275     2.272632     2.264988     2.257345     2.249702
      2.242059     2.234416     2.226772     2.219129     2.211486     2.203843     2.196199     2.188556     2.180913     2.173270
      2.165627     2.157983     2.150340     2.142697     2.135054     2.127410     2.119767     2.112124     2.104481     2.096838
      2.089194     2.081551     2.073908     2.066265     2.058621     2.050978     2.043335     2.035692     2.028049     2.020405
      2.012762     2.005119     1.997476     1.989833     1.982190     1.974546     1.966903     1.959260     1.951617     1.943974
      1.936331     1.928688     1.921045     1.913402     1.905759     1.898115     1.890472     1.882829     1.875186     1.867543
      1.859900     1.852257     1.844614     1.836971     1.829327     1.821684     1.814041     1.806398     1.798755     1.791112
      1.783469     1.775826     1.768183     1.760540     1.752896     1.745253     1.737610     1.729967     1.722324     1.714681
      1.707038     1.699395     1.691752     1.684108     1.676465     1.668822     1.661179     1.653536     1.645893     1.638250
      1.630607     1.622964     1.615321     1.607677     1.600034     1.592391     1.584748     1.577105     1.569462     1.561819
      1.554176     1.546533     1.538890     1.531246     1.523603     1.515960     1.508317     1.500674     1.493031     1.485388
      1.477745     1.470102     1.462458     1.454815     1.447172     1.439529     1.431886     1.424243     1.416600     1.408957
      1.401314     1.393671     1.386027     1.378384     1.370741     1.363098     1.355455     1.347812     1.340169     1.332526
      1.324883     1.317240     1.309596     1.301953     1.294310     1.286667     1.279024     1.271381     1.263738     1.256095
      1.248452     1.240808     1.233165     1.225522     1.217879     1.210236     1.202593     1.194950     1.187307     1.179664
      1.172021     1.164377     1.156734     1.149091     1.141448     1.133805     1.126162     1.118519     1.110876     1.103233
      1.095590     1.087946     1.080303     1.072660     1.065017     1.057374     1.049731     1.042088     1.034445     1.026802
      1.019158     1.011515     1.003872     0.996229     0.988586     0.980943     0.973300     0.965657     0.958014     0.950371
      0.942727     0.935084     0.927441     0.919798     0.912155     0.904512     0.896869     0.889226     0.881583     0.873940
      0.866296     0.858653     0.851010     0.843367     0.835724     0.828081     0.820438     0.812795     0.805152     0.797508
      0.789865     0.782222     0.774579     0.766936     0.759293     0.751650     0.744007     0.736364     0.728721     0.721077
      0.713434     0.705791     0.698148     0.690505     0.682862     0.675219     0.667576     0.659933     0.652290     0.644646
      0.637003     0.629360     0.621717     0.614074     0.606431     0.598788     0.591145     0.583502     0.575858     0.568215
      0.560572     0.552929     0.545286     0.537643     0.530000     0.522357     0.514714     0.507071     0.499427     0.491784
      0.484141     0.476498     0.468855     0.461212     0.453569     0.445925     0.438282     0.430639     0.422996     0.415353
      0.407710     0.400067     0.392424     0.384780     0.377137     0.369494     0.361851     0.354208     0.346565     0.338922
      0.331278     0.323635     0.315992     0.308349     0.300706     0.293063     0.285420     0.277777     0.270133     0.262490
      0.254847     0.247204     0.239561     0.231918     0.224275     0.216631     0.208988     0.201345
 NY phased data points follow
  -1.82551E+01 -1.49670E+01 -1.60486E+01 -1.81890E+01 -1.26969E+01 -1.11023E+01 -8.24572E+00 -2.43835E+00  2.39025E+00  3.00723E+00
   2.74568E+00  6.53143E+00  4.44539E+00 -2.65865E+00 -6.06664E+00 -1.06366E+01 -1.23646E+01 -1.51467E+01 -2.06476E+01 -1.76983E+01
  -1.56574E+01 -1.49720E+01 -1.75281E+01 -1.72553E+01 -1.43893E+01 -1.31620E+01 -1.36012E+01 -9.57629E+00 -1.18200E+01 -1.59682E+01
  -1.30627E+01 -1.06836E+01 -9.26988E+00 -5.59672E+00 -1.05536E+01 -1.44507E+01 -7.71878E+00 -1.49002E+01 -1.38149E+01 -1.31685E+01
  -1.56798E+01 -1.34477E+01 -9.59813E+00 -8.34340E+00 -1.03738E+01 -6.38325E+00 -1.55517E+00 -2.11426E+00 -4.19496E+00 -4.72688E+00
  -1.08251E+01 -1.26719E+01 -1.42381E+01 -1.32358E+01 -1.04430E+01 -1.18105E+01 -1.03334E+01 -8.83877E+00 -6.95381E+00 -6.57144E+00
  -1.12826E+01 -1.21921E+01 -1.63505E+01 -1.85775E+01 -1.63340E+01 -1.44961E+01 -1.45717E+01 -1.70775E+01 -1.41544E+01 -1.39582E+01
  -1.38290E+01 -1.46452E+01 -1.45436E+01 -1.51448E+01 -1.44548E+01 -1.23494E+01 -1.51982E+01 -1.34386E+01 -1.20007E+01 -1.34935E+01
  -1.13828E+01 -1.23232E+01 -1.35547E+01 -1.29641E+01 -1.51458E+01 -1.90486E+01 -1.62743E+01 -1.28906E+01 -9.06593E+00 -1.54839E+01
  -1.12277E+01 -1.11461E+01 -1.08079E+01 -1.07165E+01 -9.36843E+00 -9.34147E+00 -1.02455E+01 -3.48472E+00 -6.44358E+00 -3.93492E+00
   8.14691E+00  2.26768E+01  3.34082E+01  2.80756E+01  2.29946E+01  1.15196E+01  2.68657E-01 -5.53060E+00 -1.03111E+01 -1.21659E+01
  -1.01425E+01 -1.17466E+01 -1.08785E+01 -1.03679E+01 -1.39597E+01 -9.94918E+00 -1.15425E+01 -1.07346E+01 -1.01464E+01 -7.00044E+00
  -6.80859E+00 -3.50528E+00 -4.86591E+00  7.38003E+00  1.12659E+01  1.87463E+01  3.23746E+01  3.96701E+01  2.96943E+01  1.64836E+01
   6.45905E+00 -1.35042E+00 -3.89133E+00 -7.89660E+00 -1.04255E+01 -1.07045E+01 -7.97731E+00 -9.20937E+00 -8.74368E+00 -1.12055E+01
  -1.07243E+01 -8.84966E+00 -9.93785E+00 -7.44895E+00 -6.84069E+00 -1.07808E+01 -1.05597E+01 -1.21862E+01 -9.95174E+00 -1.00402E+01
  -1.11827E+01 -1.11008E+01 -8.91499E+00 -9.04842E+00 -1.16253E+01 -1.08429E+01 -1.06432E+01 -6.41855E+00 -9.18879E+00 -5.25772E+00
  -8.53985E+00 -8.56810E+00 -1.36957E+01 -1.29515E+01 -1.20083E+01 -1.25070E+01 -1.15556E+01 -1.74117E+01 -1.21776E+01 -2.08420E+01
  -1.88434E+01 -1.83524E+01 -1.75156E+01 -1.84796E+01 -2.36192E+01 -2.43991E+01 -2.49464E+01 -2.38380E+01 -2.08054E+01 -1.83154E+01
  -1.78920E+01 -1.92180E+01 -1.88421E+01 -1.35066E+01 -1.82268E+01 -1.53351E+01 -1.12720E+01 -1.67002E+01 -1.58696E+01 -1.16720E+01
  -9.48642E+00 -1.05289E+01 -1.22885E+01 -1.51605E+01 -1.51053E+01 -1.22564E+01 -1.44403E+01 -1.60222E+01 -1.95934E+01 -1.40320E+01
  -1.12413E+01 -1.03056E+01 -9.48221E+00 -7.07293E+00 -8.32282E+00 -1.03275E+01 -1.26651E+01 -1.34292E+01 -1.29153E+01 -1.36578E+01
  -1.40298E+01 -1.16049E+01 -9.34981E+00 -6.07430E+00 -1.25590E+00 -4.75551E-01 -1.70545E+00 -1.60845E-01 -3.64470E+00 -8.32477E+00
  -1.50326E+01 -1.88955E+01 -2.01099E+01 -1.34223E+01 -1.01046E+01 -2.49016E+00 -2.91713E+00 -1.63292E+00  4.27118E-02 -2.65269E+00
  -7.09927E+00 -5.04454E+00 -5.84383E+00 -6.96575E+00 -4.83660E+00 -6.15304E+00 -3.30498E+00 -6.93128E+00 -4.47787E+00 -4.36707E+00
  -6.04115E+00 -1.17004E+01 -7.68571E+00 -1.07618E+01 -7.51221E+00 -4.95387E+00 -3.96043E-02 -3.62352E+00  3.93156E+00  6.86776E+00
   2.28754E+00  2.67202E+00  9.44957E+00  1.66741E+01  2.52023E+01  3.45936E+01  3.60945E+01  3.88936E+01  5.86066E+01  7.45715E+01
   8.39702E+01  7.34515E+01  4.58460E+01  2.83415E+01  1.27209E+01 -4.56243E+00 -3.96453E+00 -6.51490E+00 -6.04061E+00 -2.72237E+00
  -5.02521E+00 -6.29943E+00 -2.07305E+00 -3.54855E+00 -6.02141E+00 -3.12895E+00 -8.16186E+00 -4.91558E+00 -4.93135E+00 -7.05768E+00
  -8.24217E+00 -3.18981E+00 -5.03061E+00 -3.29214E+00 -6.65398E+00 -9.00848E+00 -6.03867E+00 -7.32147E+00 -4.57303E+00 -6.58156E+00
  -5.01202E+00 -6.29115E+00 -4.95843E+00 -6.19134E+00 -7.68986E+00 -4.87203E+00 -6.70343E+00 -8.70255E+00 -4.23660E+00 -6.11226E+00
  -7.77239E+00 -6.29376E+00 -5.49263E+00 -4.88163E+00 -4.47761E+00 -5.22426E+00 -3.28306E+00 -6.78483E+00 -5.37999E+00 -4.57826E+00
  -3.56596E+00 -2.22800E+00 -2.51182E+00 -6.29531E+00 -2.89333E+00 -5.37895E+00 -9.30354E-02 -3.60763E+00 -5.16935E+00 -2.27706E+00
  -5.69594E+00 -1.79917E+00 -8.89354E+00 -3.53107E+00 -7.10738E+00 -3.87178E+00 -4.37676E+00 -6.91086E+00 -8.58404E+00 -5.37911E+00
  -5.18260E+00 -2.77148E+00 -3.14640E+00 -2.33383E-01  4.59688E-02  1.70376E+00 -1.86994E+00 -1.40508E+00 -4.83664E+00  1.60997E+00
  -1.79805E+00 -2.63318E+00 -4.90461E+00 -1.51175E+00 -1.06083E+00 -2.37391E+00 -5.77778E+00 -3.96655E+00 -8.29750E+00 -9.51118E+00
  -5.60297E+00 -8.09653E+00 -5.87051E+00 -5.06562E+00 -3.44902E+00 -4.91652E+00 -5.51673E+00 -6.27781E+00 -5.16571E+00 -7.42812E+00
  -3.38626E+00 -6.22744E+00 -9.62726E+00 -8.52379E+00 -3.64437E+00 -6.57023E+00 -8.17125E+00 -1.01056E+01 -5.09595E+00 -6.55688E+00
  -5.23342E+00 -4.39474E+00 -6.50865E+00 -7.55853E+00 -9.09344E+00 -4.56065E+00 -9.68789E+00 -2.31213E+00 -4.65472E+00 -5.09069E+00
  -6.56355E+00 -1.29225E+01 -6.14556E+00 -2.45395E+00 -3.62608E+00 -7.80427E+00 -1.15306E+01 -6.03104E+00 -3.16107E+00 -3.62829E+00
  -3.15373E+00 -2.78952E+00  9.66882E-01 -3.33486E+00  1.16458E+00 -3.17666E+00  6.69035E-01  1.47391E-01 -3.48307E+00 -2.47368E+00
  -1.08522E+00  1.99705E+00  1.92410E+00  7.61780E+00  1.25916E-01  2.23614E+00  5.57749E+00  2.71505E+00  2.37421E+00  8.05897E+00
   3.71526E+00 -1.34111E+00  1.05685E+00  2.67119E+00  2.44082E+00 -3.22721E+00 -8.47874E-02 -4.85302E+00 -6.11148E+00 -4.27156E+00
  -4.45551E+00 -7.63945E+00 -1.00867E+00 -5.44480E+00 -1.19220E+00 -9.67328E+00 -4.68557E+00 -7.53466E+00 -2.78982E+00 -9.55432E+00
  -7.21085E+00 -5.94067E+00 -2.74470E+00 -3.62416E+00 -3.50289E+00 -7.80254E+00 -5.56107E+00 -6.87576E+00 -8.71786E+00 -6.54997E+00
  -6.42420E+00 -7.78629E+00 -5.77414E+00 -4.81778E+00 -4.65040E+00 -9.97260E+00 -1.01291E+01 -5.08336E+00 -8.40535E+00 -8.65047E+00
  -7.49100E+00 -9.46800E-01 -3.17882E+00 -9.99895E+00 -4.29737E+00 -5.84139E+00 -8.77229E+00 -4.37467E+00 -7.57555E+00 -6.22901E+00
  -6.36878E+00 -6.16673E+00 -9.80630E+00 -6.33584E+00 -6.09628E+00 -3.72663E+00 -5.15004E+00 -4.83863E+00 -8.69669E+00 -7.76830E+00
  -5.45173E+00 -8.07758E+00 -8.09645E+00 -5.36455E+00 -8.66879E+00 -4.53359E+00 -8.15007E+00 -5.80823E+00 -9.46795E+00 -3.29955E+00
  -7.90891E+00 -6.83523E+00 -1.01463E-01 -3.65388E+00 -6.95573E+00 -8.95669E+00 -2.81660E+00 -5.90736E+00 -7.27070E+00 -5.82753E+00
  -7.29906E+00 -2.46181E+00 -6.61569E+00 -4.18192E+00 -5.97148E+00 -5.18927E+00 -3.98184E+00 -7.41921E+00
 NY points of the fit to the data follow
  -1.58585E+01 -1.58955E+01 -1.55308E+01 -1.43690E+01 -1.27358E+01 -1.12836E+01 -7.54837E+00 -2.14432E+00  1.07838E+00  2.88868E+00
   4.19250E+00  5.27050E+00  3.72098E+00 -1.40047E+00 -5.76298E+00 -8.47126E+00 -1.13170E+01 -1.30324E+01 -1.32406E+01 -1.31939E+01
  -1.31692E+01 -1.31672E+01 -1.30149E+01 -1.33140E+01 -1.34778E+01 -1.33637E+01 -1.39177E+01 -1.40151E+01 -1.32126E+01 -1.13961E+01
  -9.29607E+00 -8.24593E+00 -7.28362E+00 -6.99458E+00 -8.45617E+00 -1.04397E+01 -1.23215E+01 -1.40316E+01 -1.53331E+01 -1.57817E+01
  -1.47289E+01 -1.30656E+01 -1.16435E+01 -1.04388E+01 -8.63211E+00 -5.93565E+00 -3.51609E+00 -3.13277E+00 -5.26772E+00 -8.65812E+00
  -1.17534E+01 -1.39927E+01 -1.51830E+01 -1.50514E+01 -1.41584E+01 -1.34439E+01 -1.26821E+01 -1.18095E+01 -1.07739E+01 -1.00343E+01
  -1.02705E+01 -1.12145E+01 -1.24922E+01 -1.38558E+01 -1.46192E+01 -1.47515E+01 -1.41536E+01 -1.33416E+01 -1.27215E+01 -1.21071E+01
  -1.15923E+01 -1.13240E+01 -1.15061E+01 -1.19847E+01 -1.23489E+01 -1.26375E+01 -1.28989E+01 -1.30158E+01 -1.30525E+01 -1.31088E+01
  -1.32102E+01 -1.33792E+01 -1.32436E+01 -1.33552E+01 -1.35031E+01 -1.33386E+01 -1.32283E+01 -1.33952E+01 -1.40192E+01 -1.45538E+01
  -1.45022E+01 -1.42244E+01 -1.40043E+01 -1.35552E+01 -1.33040E+01 -1.33772E+01 -1.30434E+01 -1.02120E+01 -6.92605E+00 -8.17342E-01
   9.53698E+00  2.21749E+01  3.14197E+01  3.08196E+01  2.23533E+01  1.13929E+01  5.96764E-01 -7.35034E+00 -1.13440E+01 -1.25859E+01
  -1.25367E+01 -1.23897E+01 -1.24145E+01 -1.24584E+01 -1.25026E+01 -1.25476E+01 -1.25627E+01 -1.25531E+01 -1.24926E+01 -1.22898E+01
  -1.15992E+01 -8.90844E+00 -4.21857E+00  1.36729E+00  9.84371E+00  2.26856E+01  3.43375E+01  3.71978E+01  2.95066E+01  1.72851E+01
   6.28031E+00 -2.42579E+00 -7.88243E+00 -9.61129E+00 -9.92738E+00 -1.05382E+01 -1.10659E+01 -1.12561E+01 -1.11695E+01 -1.07478E+01
  -1.03165E+01 -1.01297E+01 -1.02045E+01 -1.04892E+01 -1.08095E+01 -1.10922E+01 -1.13149E+01 -1.14436E+01 -1.15521E+01 -1.17275E+01
  -1.18803E+01 -1.20786E+01 -1.23316E+01 -1.24998E+01 -1.24913E+01 -1.23026E+01 -1.22276E+01 -1.21475E+01 -1.24033E+01 -1.32455E+01
  -1.41130E+01 -1.46743E+01 -1.42262E+01 -1.31994E+01 -1.26135E+01 -1.27232E+01 -1.35524E+01 -1.46399E+01 -1.53188E+01 -1.56794E+01
  -1.56719E+01 -1.54776E+01 -1.56103E+01 -1.59673E+01 -1.67680E+01 -1.73299E+01 -1.71915E+01 -1.61805E+01 -1.51669E+01 -1.52014E+01
  -1.57223E+01 -1.59137E+01 -1.57238E+01 -1.50024E+01 -1.44940E+01 -1.43851E+01 -1.38832E+01 -1.28203E+01 -1.12670E+01 -9.71242E+00
  -8.84013E+00 -8.63667E+00 -9.06429E+00 -1.02424E+01 -1.08861E+01 -1.10682E+01 -1.11291E+01 -1.10144E+01 -1.06260E+01 -9.66769E+00
  -8.81720E+00 -7.99158E+00 -7.03401E+00 -6.46097E+00 -6.71409E+00 -8.37286E+00 -1.04251E+01 -1.29429E+01 -1.55106E+01 -1.64788E+01
  -1.59473E+01 -1.41494E+01 -1.19335E+01 -9.34722E+00 -5.26200E+00 -2.09688E+00 -1.63569E+00 -4.07577E+00 -8.18318E+00 -1.18699E+01
  -1.53443E+01 -1.84776E+01 -1.90044E+01 -1.64915E+01 -1.22360E+01 -8.26484E+00 -5.68687E+00 -4.05756E+00 -3.55245E+00 -4.38767E+00
  -5.62533E+00 -6.35392E+00 -6.32269E+00 -5.91623E+00 -5.35926E+00 -4.57136E+00 -3.71664E+00 -3.17562E+00 -3.32835E+00 -3.86477E+00
  -4.70421E+00 -5.69902E+00 -6.12100E+00 -5.27073E+00 -3.61583E+00 -2.02563E+00 -9.09216E-01 -2.03704E-01  2.24495E-01  5.59655E-01
   2.33027E+00  4.93056E+00  8.00021E+00  1.45768E+01  2.30303E+01  3.43433E+01  4.00593E+01  4.09856E+01  5.61391E+01  7.55904E+01
   8.40163E+01  7.19314E+01  4.75467E+01  2.80741E+01  1.19476E+01 -1.43625E+00 -4.82093E+00 -3.62111E+00 -3.75854E+00 -4.23892E+00
  -4.53815E+00 -4.79037E+00 -4.93932E+00 -4.93736E+00 -5.01701E+00 -5.35555E+00 -5.80926E+00 -6.13956E+00 -6.40341E+00 -6.68695E+00
  -6.83487E+00 -6.84858E+00 -6.81906E+00 -6.83373E+00 -6.91496E+00 -6.99839E+00 -7.06203E+00 -7.14856E+00 -7.19618E+00 -7.14438E+00
  -6.99564E+00 -6.77370E+00 -6.55672E+00 -6.38691E+00 -6.22731E+00 -6.08314E+00 -5.98239E+00 -5.87726E+00 -5.73958E+00 -5.55705E+00
  -5.34675E+00 -5.14698E+00 -4.96069E+00 -4.79569E+00 -4.67393E+00 -4.58984E+00 -4.53196E+00 -4.50026E+00 -4.49181E+00 -4.50204E+00
  -4.52714E+00 -4.56522E+00 -4.61207E+00 -4.66254E+00 -4.70887E+00 -4.74504E+00 -4.76583E+00 -4.76658E+00 -4.74140E+00 -4.68446E+00
  -4.58561E+00 -4.42380E+00 -4.20624E+00 -4.05694E+00 -3.81362E+00 -3.57582E+00 -3.55269E+00 -3.79197E+00 -4.15512E+00 -4.33797E+00
  -4.23512E+00 -4.11453E+00 -3.86130E+00 -3.34903E+00 -2.74315E+00 -2.22111E+00 -2.00630E+00 -2.04638E+00 -2.14752E+00 -2.32462E+00
  -2.50707E+00 -2.52996E+00 -2.45413E+00 -2.59114E+00 -2.55436E+00 -2.58946E+00 -3.13938E+00 -4.29183E+00 -5.70805E+00 -6.61905E+00
  -6.92051E+00 -7.21381E+00 -6.93818E+00 -6.06201E+00 -5.08114E+00 -4.44637E+00 -4.45631E+00 -4.73747E+00 -5.05299E+00 -5.50183E+00
  -5.84481E+00 -5.97393E+00 -6.04534E+00 -6.10718E+00 -6.15688E+00 -6.19690E+00 -6.22946E+00 -6.25698E+00 -6.28006E+00 -6.29933E+00
  -6.31429E+00 -6.32524E+00 -6.33157E+00 -6.33302E+00 -6.32790E+00 -6.31497E+00 -6.29226E+00 -6.25873E+00 -6.21239E+00 -6.15159E+00
  -6.07334E+00 -5.97533E+00 -5.85453E+00 -5.70882E+00 -5.53502E+00 -5.33037E+00 -5.09120E+00 -4.81504E+00 -4.49935E+00 -4.14312E+00
  -3.74520E+00 -3.30617E+00 -2.82722E+00 -2.31234E+00 -1.76692E+00 -1.19909E+00 -6.17948E-01 -3.51079E-02  5.36873E-01  1.08313E+00
   1.58885E+00  2.03860E+00  2.41885E+00  2.71682E+00  2.92260E+00  3.02808E+00  3.02932E+00  2.92541E+00  2.72013E+00  2.41987E+00
   2.03466E+00  1.57610E+00  1.05858E+00  4.97017E-01 -9.24544E-02 -6.95137E-01 -1.29684E+00 -1.88578E+00 -2.45114E+00 -2.98482E+00
  -3.48015E+00 -3.93361E+00 -4.34301E+00 -4.70853E+00 -5.03069E+00 -5.31177E+00 -5.55414E+00 -5.76167E+00 -5.93776E+00 -6.08641E+00
  -6.21056E+00 -6.31369E+00 -6.39840E+00 -6.46798E+00 -6.52455E+00 -6.57046E+00 -6.60686E+00 -6.63548E+00 -6.65728E+00 -6.67390E+00
  -6.68585E+00 -6.69406E+00 -6.69855E+00 -6.70019E+00 -6.69916E+00 -6.69635E+00 -6.69162E+00 -6.68540E+00 -6.67737E+00 -6.66818E+00
  -6.65777E+00 -6.64673E+00 -6.63467E+00 -6.62186E+00 -6.60798E+00 -6.59362E+00 -6.57862E+00 -6.56342E+00 -6.54752E+00 -6.53120E+00
  -6.51417E+00 -6.49702E+00 -6.47950E+00 -6.46194E+00 -6.44376E+00 -6.42535E+00 -6.40645E+00 -6.38764E+00 -6.36856E+00 -6.34947E+00
  -6.32983E+00 -6.31007E+00 -6.28999E+00 -6.27008E+00 -6.24991E+00 -6.22969E+00 -6.20897E+00 -6.18825E+00 -6.16731E+00 -6.14658E+00
  -6.12554E+00 -6.10444E+00 -6.08287E+00 -6.06141E+00 -6.03976E+00 -6.01828E+00 -5.99641E+00 -5.97446E+00 -5.95211E+00 -5.92990E+00
  -5.90749E+00 -5.88516E+00 -5.86235E+00 -5.83944E+00 -5.81614E+00 -5.79297E+00 -5.76949E+00 -5.74592E+00
 NY background values follow
    -1.625E+01   -1.623E+01   -1.621E+01   -1.619E+01   -1.617E+01   -1.615E+01   -1.612E+01   -1.610E+01   -1.608E+01   -1.606E+01
    -1.604E+01   -1.602E+01   -1.600E+01   -1.598E+01   -1.596E+01   -1.594E+01   -1.592E+01   -1.590E+01   -1.588E+01   -1.586E+01
    -1.584E+01   -1.582E+01   -1.580E+01   -1.578E+01   -1.576E+01   -1.574E+01   -1.572E+01   -1.570E+01   -1.568E+01   -1.566E+01
    -1.563E+01   -1.561E+01   -1.559E+01   -1.557E+01   -1.555E+01   -1.553E+01   -1.551E+01   -1.549E+01   -1.547E+01   -1.545E+01
    -1.543E+01   -1.541E+01   -1.539E+01   -1.537E+01   -1.535E+01   -1.533E+01   -1.531E+01   -1.528E+01   -1.526E+01   -1.524E+01
    -1.522E+01   -1.520E+01   -1.518E+01   -1.516E+01   -1.514E+01   -1.512E+01   -1.510E+01   -1.508E+01   -1.506E+01   -1.504E+01
    -1.502E+01   -1.499E+01   -1.497E+01   -1.495E+01   -1.493E+01   -1.491E+01   -1.489E+01   -1.487E+01   -1.485E+01   -1.483E+01
    -1.481E+01   -1.479E+01   -1.477E+01   -1.474E+01   -1.472E+01   -1.470E+01   -1.468E+01   -1.466E+01   -1.464E+01   -1.462E+01
    -1.460E+01   -1.458E+01   -1.456E+01   -1.454E+01   -1.451E+01   -1.449E+01   -1.447E+01   -1.445E+01   -1.443E+01   -1.441E+01
    -1.439E+01   -1.437E+01   -1.435E+01   -1.433E+01   -1.430E+01   -1.428E+01   -1.426E+01   -1.424E+01   -1.422E+01   -1.420E+01
    -1.418E+01   -1.416E+01   -1.414E+01   -1.411E+01   -1.409E+01   -1.407E+01   -1.405E+01   -1.403E+01   -1.401E+01   -1.399E+01
    -1.397E+01   -1.395E+01   -1.392E+01   -1.390E+01   -1.388E+01   -1.386E+01   -1.384E+01   -1.382E+01   -1.380E+01   -1.378E+01
    -1.375E+01   -1.373E+01   -1.371E+01   -1.369E+01   -1.367E+01   -1.365E+01   -1.363E+01   -1.361E+01   -1.358E+01   -1.356E+01
    -1.354E+01   -1.352E+01   -1.350E+01   -1.348E+01   -1.346E+01   -1.344E+01   -1.341E+01   -1.339E+01   -1.337E+01   -1.335E+01
    -1.333E+01   -1.331E+01   -1.329E+01   -1.326E+01   -1.324E+01   -1.322E+01   -1.320E+01   -1.318E+01   -1.316E+01   -1.314E+01
    -1.312E+01   -1.309E+01   -1.307E+01   -1.305E+01   -1.303E+01   -1.301E+01   -1.299E+01   -1.296E+01   -1.294E+01   -1.292E+01
    -1.290E+01   -1.288E+01   -1.286E+01   -1.284E+01   -1.281E+01   -1.279E+01   -1.277E+01   -1.275E+01   -1.273E+01   -1.271E+01
    -1.269E+01   -1.266E+01   -1.264E+01   -1.262E+01   -1.260E+01   -1.258E+01   -1.256E+01   -1.253E+01   -1.251E+01   -1.249E+01
    -1.247E+01   -1.245E+01   -1.243E+01   -1.241E+01   -1.238E+01   -1.236E+01   -1.234E+01   -1.232E+01   -1.230E+01   -1.228E+01
    -1.225E+01   -1.223E+01   -1.221E+01   -1.219E+01   -1.217E+01   -1.215E+01   -1.212E+01   -1.210E+01   -1.208E+01   -1.206E+01
    -1.204E+01   -1.202E+01   -1.199E+01   -1.197E+01   -1.195E+01   -1.193E+01   -1.191E+01   -1.188E+01   -1.186E+01   -1.184E+01
    -1.182E+01   -1.180E+01   -1.178E+01   -1.175E+01   -1.173E+01   -1.171E+01   -1.169E+01   -1.167E+01   -1.165E+01   -1.162E+01
    -1.160E+01   -1.158E+01   -1.156E+01   -1.154E+01   -1.151E+01   -1.149E+01   -1.147E+01   -1.145E+01   -1.143E+01   -1.141E+01
    -1.138E+01   -1.136E+01   -1.134E+01   -1.132E+01   -1.130E+01   -1.127E+01   -1.125E+01   -1.123E+01   -1.121E+01   -1.119E+01
    -1.116E+01   -1.114E+01   -1.112E+01   -1.110E+01   -1.108E+01   -1.106E+01   -1.103E+01   -1.101E+01   -1.099E+01   -1.097E+01
    -1.095E+01   -1.092E+01   -1.090E+01   -1.088E+01   -1.086E+01   -1.084E+01   -1.081E+01   -1.079E+01   -1.077E+01   -1.075E+01
    -1.073E+01   -1.070E+01   -1.068E+01   -1.066E+01   -1.064E+01   -1.062E+01   -1.059E+01   -1.057E+01   -1.055E+01   -1.053E+01
    -1.051E+01   -1.048E+01   -1.046E+01   -1.044E+01   -1.042E+01   -1.040E+01   -1.037E+01   -1.035E+01   -1.033E+01   -1.031E+01
    -1.029E+01   -1.026E+01   -1.024E+01   -1.022E+01   -1.020E+01   -1.018E+01   -1.015E+01   -1.013E+01   -1.011E+01   -1.009E+01
    -1.007E+01   -1.004E+01   -1.002E+01   -1.000E+01   -9.978E+00   -9.956E+00   -9.933E+00   -9.911E+00   -9.889E+00   -9.867E+00
    -9.845E+00   -9.823E+00   -9.801E+00   -9.779E+00   -9.757E+00   -9.735E+00   -9.712E+00   -9.690E+00   -9.668E+00   -9.646E+00
    -9.624E+00   -9.602E+00   -9.580E+00   -9.558E+00   -9.536E+00   -9.513E+00   -9.491E+00   -9.469E+00   -9.447E+00   -9.425E+00
    -9.403E+00   -9.381E+00   -9.358E+00   -9.336E+00   -9.314E+00   -9.292E+00   -9.270E+00   -9.248E+00   -9.225E+00   -9.203E+00
    -9.181E+00   -9.159E+00   -9.137E+00   -9.115E+00   -9.092E+00   -9.070E+00   -9.048E+00   -9.026E+00   -9.004E+00   -8.982E+00
    -8.959E+00   -8.937E+00   -8.915E+00   -8.893E+00   -8.871E+00   -8.848E+00   -8.826E+00   -8.804E+00   -8.782E+00   -8.760E+00
    -8.737E+00   -8.715E+00   -8.693E+00   -8.671E+00   -8.649E+00   -8.626E+00   -8.604E+00   -8.582E+00   -8.560E+00   -8.538E+00
    -8.515E+00   -8.493E+00   -8.471E+00   -8.449E+00   -8.426E+00   -8.404E+00   -8.382E+00   -8.360E+00   -8.337E+00   -8.315E+00
    -8.293E+00   -8.271E+00   -8.249E+00   -8.226E+00   -8.204E+00   -8.182E+00   -8.160E+00   -8.137E+00   -8.115E+00   -8.093E+00
    -8.071E+00   -8.048E+00   -8.026E+00   -8.004E+00   -7.982E+00   -7.959E+00   -7.937E+00   -7.915E+00   -7.893E+00   -7.870E+00
    -7.848E+00   -7.826E+00   -7.804E+00   -7.781E+00   -7.759E+00   -7.737E+00   -7.715E+00   -7.692E+00   -7.670E+00   -7.648E+00
    -7.626E+00   -7.603E+00   -7.581E+00   -7.559E+00   -7.537E+00   -7.514E+00   -7.492E+00   -7.470E+00   -7.448E+00   -7.425E+00
    -7.403E+00   -7.381E+00   -7.359E+00   -7.336E+00   -7.314E+00   -7.292E+00   -7.269E+00   -7.247E+00   -7.225E+00   -7.203E+00
    -7.180E+00   -7.158E+00   -7.136E+00   -7.114E+00   -7.091E+00   -7.069E+00   -7.047E+00   -7.025E+00   -7.002E+00   -6.980E+00
    -6.958E+00   -6.936E+00   -6.913E+00   -6.891E+00   -6.869E+00   -6.847E+00   -6.824E+00   -6.802E+00   -6.780E+00   -6.757E+00
    -6.735E+00   -6.713E+00   -6.691E+00   -6.668E+00   -6.646E+00   -6.624E+00   -6.602E+00   -6.579E+00   -6.557E+00   -6.535E+00
    -6.513E+00   -6.490E+00   -6.468E+00   -6.446E+00   -6.424E+00   -6.401E+00   -6.379E+00   -6.357E+00   -6.335E+00   -6.312E+00
    -6.290E+00   -6.268E+00   -6.246E+00   -6.223E+00   -6.201E+00   -6.179E+00   -6.157E+00   -6.135E+00   -6.112E+00   -6.090E+00
    -6.068E+00   -6.046E+00   -6.023E+00   -6.001E+00   -5.979E+00   -5.957E+00   -5.934E+00   -5.912E+00   -5.890E+00   -5.868E+00
    -5.846E+00   -5.823E+00   -5.801E+00   -5.779E+00   -5.757E+00   -5.735E+00   -5.712E+00   -5.690E+00   -5.668E+00   -5.646E+00
    -5.623E+00   -5.601E+00   -5.579E+00   -5.557E+00   -5.535E+00   -5.512E+00   -5.490E+00   -5.468E+00
 Ala      Conc. = 4.94E+01
