 LCModel (Version 6.3-1L) Copyright: S.W. Provencher.          Ref.: Magn. Reson. Med. 30:672-679 (1993).                
 Slice#3 Row#1 Col#1  K_02_press_1_raw_act
 36 lines in following concentration table = NCONC+1
    Conc.  %SD /Cr+PCr  Metabolite                                         
  278.585  28%   3.449 Ala                                                 
   13.443  58%   0.166 Asp                                                 
   80.768  22%   1.000 Cr                                                  
    0.000 999%   0.000 PCr                                                 
    7.972  59% 9.9E-02 GABA                                                
    8.735  54%   0.108 Glc                                                 
    0.000 999%   0.000 Gln                                                 
  288.802  56%   3.576 Glu                                                 
    0.000 999%   0.000 GPC                                                 
   37.862  18%   0.469 PCh                                                 
    7.379 392% 9.1E-02 GSH                                                 
  240.286  37%   2.975 Ins                                                 
  157.513  57%   1.950 Lac                                                 
   73.674  27%   0.912 NAA                                                 
    0.000 999%   0.000 NAAG                                                
    3.631  43% 4.5E-02 Scyllo                                              
   15.949  49%   0.197 Tau                                                 
   24.573  60%   0.304 -CrCH2                                              
   37.862  18%   0.469 GPC+PCh                                             
   73.674  27%   0.912 NAA+NAAG                                            
   80.768  22%   1.000 Cr+PCr                                              
  288.802  56%   3.576 Glu+Gln                                             
    0.000 999%   0.000 Lip13a                                              
   25.602 129%   0.317 Lip13b                                              
    0.000 999%   0.000 Lip09                                               
    0.000 999%   0.000 MM09                                                
    2.607 999% 3.2E-02 Lip20                                               
    0.000 999%   0.000 MM20                                                
    0.000 999%   0.000 MM12                                                
  153.704  33%   1.903 MM14                                                
   76.700  47%   0.950 MM17                                                
   25.602 129%   0.317 Lip13a+Lip13b                                       
  179.306  33%   2.220 MM14+Lip13a+Lip13b+MM12                             
    0.000 999%   0.000 MM09+Lip09                                          
    2.607 999% 3.2E-02 MM20+Lip20                                          
   6 lines in following misc. output table
  FWHM = 0.122 ppm    S/N =   1                                            
  Data shift =-0.031 ppm                                                   
  Ph: -89 deg     -20.6 deg/ppm                                            
  alphaB,S = 8.5E+01,   4.1E+02                                            
   14 spline knots.   Ns =11(1)                                            
  (16)11 infls.   (18) 8 extrs.                                            
  498 points on ppm-axis = NY
      4.000000     3.992357     3.984714     3.977070     3.969427     3.961784     3.954141     3.946497     3.938854     3.931211
      3.923568     3.915925     3.908281     3.900638     3.892995     3.885352     3.877708     3.870065     3.862422     3.854779
      3.847136     3.839492     3.831849     3.824206     3.816563     3.808919     3.801276     3.793633     3.785990     3.778347
      3.770703     3.763060     3.755417     3.747774     3.740130     3.732487     3.724844     3.717201     3.709558     3.701914
      3.694271     3.686628     3.678985     3.671341     3.663698     3.656055     3.648412     3.640769     3.633125     3.625482
      3.617839     3.610196     3.602552     3.594909     3.587266     3.579623     3.571980     3.564336     3.556693     3.549050
      3.541407     3.533763     3.526120     3.518477     3.510834     3.503191     3.495547     3.487904     3.480261     3.472618
      3.464974     3.457331     3.449688     3.442045     3.434402     3.426758     3.419115     3.411472     3.403829     3.396185
      3.388542     3.380899     3.373256     3.365613     3.357969     3.350326     3.342683     3.335040     3.327396     3.319753
      3.312110     3.304467     3.296824     3.289180     3.281537     3.273894     3.266251     3.258607     3.250964     3.243321
      3.235678     3.228034     3.220391     3.212748     3.205105     3.197462     3.189818     3.182175     3.174532     3.166889
      3.159245     3.151602     3.143959     3.136316     3.128673     3.121029     3.113386     3.105743     3.098100     3.090456
      3.082813     3.075170     3.067527     3.059884     3.052240     3.044597     3.036954     3.029311     3.021667     3.014024
      3.006381     2.998738     2.991095     2.983451     2.975808     2.968165     2.960522     2.952878     2.945235     2.937592
      2.929949     2.922306     2.914662     2.907019     2.899376     2.891733     2.884089     2.876446     2.868803     2.861160
      2.853517     2.845873     2.838230     2.830587     2.822944     2.815300     2.807657     2.800014     2.792371     2.784728
      2.777084     2.769441     2.761798     2.754155     2.746511     2.738868     2.731225     2.723582     2.715939     2.708295
      2.700652     2.693009     2.685366     2.677722     2.670079     2.662436     2.654793     2.647150     2.639506     2.631863
      2.624220     2.616577     2.608933     2.601290     2.593647     2.586004     2.578361     2.570717     2.563074     2.555431
      2.547788     2.540144     2.532501     2.524858     2.517215     2.509572     2.501928     2.494285     2.486642     2.478999
      2.471355     2.463712     2.456069     2.448426     2.440783     2.433139     2.425496     2.417853     2.410210     2.402566
      2.394923     2.387280     2.379637     2.371994     2.364350     2.356707     2.349064     2.341421     2.333777     2.326134
      2.318491     2.310848     2.303205     2.295561     2.287918     2.280275     2.272632     2.264988     2.257345     2.249702
      2.242059     2.234416     2.226772     2.219129     2.211486     2.203843     2.196199     2.188556     2.180913     2.173270
      2.165627     2.157983     2.150340     2.142697     2.135054     2.127410     2.119767     2.112124     2.104481     2.096838
      2.089194     2.081551     2.073908     2.066265     2.058621     2.050978     2.043335     2.035692     2.028049     2.020405
      2.012762     2.005119     1.997476     1.989833     1.982190     1.974546     1.966903     1.959260     1.951617     1.943974
      1.936331     1.928688     1.921045     1.913402     1.905759     1.898115     1.890472     1.882829     1.875186     1.867543
      1.859900     1.852257     1.844614     1.836971     1.829327     1.821684     1.814041     1.806398     1.798755     1.791112
      1.783469     1.775826     1.768183     1.760540     1.752896     1.745253     1.737610     1.729967     1.722324     1.714681
      1.707038     1.699395     1.691752     1.684108     1.676465     1.668822     1.661179     1.653536     1.645893     1.638250
      1.630607     1.622964     1.615321     1.607677     1.600034     1.592391     1.584748     1.577105     1.569462     1.561819
      1.554176     1.546533     1.538890     1.531246     1.523603     1.515960     1.508317     1.500674     1.493031     1.485388
      1.477745     1.470102     1.462458     1.454815     1.447172     1.439529     1.431886     1.424243     1.416600     1.408957
      1.401314     1.393671     1.386027     1.378384     1.370741     1.363098     1.355455     1.347812     1.340169     1.332526
      1.324883     1.317240     1.309596     1.301953     1.294310     1.286667     1.279024     1.271381     1.263738     1.256095
      1.248452     1.240808     1.233165     1.225522     1.217879     1.210236     1.202593     1.194950     1.187307     1.179664
      1.172021     1.164377     1.156734     1.149091     1.141448     1.133805     1.126162     1.118519     1.110876     1.103233
      1.095590     1.087946     1.080303     1.072660     1.065017     1.057374     1.049731     1.042088     1.034445     1.026802
      1.019158     1.011515     1.003872     0.996229     0.988586     0.980943     0.973300     0.965657     0.958014     0.950371
      0.942727     0.935084     0.927441     0.919798     0.912155     0.904512     0.896869     0.889226     0.881583     0.873940
      0.866296     0.858653     0.851010     0.843367     0.835724     0.828081     0.820438     0.812795     0.805152     0.797508
      0.789865     0.782222     0.774579     0.766936     0.759293     0.751650     0.744007     0.736364     0.728721     0.721077
      0.713434     0.705791     0.698148     0.690505     0.682862     0.675219     0.667576     0.659933     0.652290     0.644646
      0.637003     0.629360     0.621717     0.614074     0.606431     0.598788     0.591145     0.583502     0.575858     0.568215
      0.560572     0.552929     0.545286     0.537643     0.530000     0.522357     0.514714     0.507071     0.499427     0.491784
      0.484141     0.476498     0.468855     0.461212     0.453569     0.445925     0.438282     0.430639     0.422996     0.415353
      0.407710     0.400067     0.392424     0.384780     0.377137     0.369494     0.361851     0.354208     0.346565     0.338922
      0.331278     0.323635     0.315992     0.308349     0.300706     0.293063     0.285420     0.277777     0.270133     0.262490
      0.254847     0.247204     0.239561     0.231918     0.224275     0.216631     0.208988     0.201345
 NY phased data points follow
  -3.66401E+00 -4.61601E+00 -4.82184E+00 -3.48822E+00 -2.72136E+00 -3.97697E+00 -3.92982E+00 -4.47608E+00 -4.23731E+00 -3.48380E+00
  -3.58240E+00 -3.73759E+00 -4.78457E+00 -3.88968E+00 -3.52751E+00 -1.88575E+00 -3.58287E+00 -3.45481E+00 -4.30152E+00 -1.96305E+00
  -2.78305E+00 -2.20748E+00 -5.03826E+00 -2.21067E+00 -4.98404E+00 -3.63780E+00 -4.47478E+00 -2.67004E+00 -2.95592E+00 -2.42576E+00
  -3.92662E+00 -3.02354E+00 -1.22675E+00 -3.44685E+00 -3.11901E+00 -2.82296E+00 -3.29572E+00 -1.46408E+00 -2.55580E+00 -4.44821E+00
  -3.20382E+00 -1.43859E+00 -2.95834E+00 -4.01857E+00 -3.81819E+00 -2.21735E+00 -2.16610E+00 -2.02895E+00 -2.56385E+00 -1.83903E+00
  -1.72461E+00 -1.27399E+00 -2.01655E+00 -1.95058E+00 -1.84823E+00 -1.73391E+00 -1.35600E+00 -2.04060E+00 -1.40543E+00 -1.47187E+00
  -1.25643E+00 -2.06831E+00 -2.93985E+00 -9.32855E-01 -3.06728E+00 -3.25669E+00 -1.62873E+00 -2.91963E+00 -1.23269E+00 -2.17236E+00
  -1.23470E+00 -2.09755E+00 -2.46837E+00 -2.11721E+00 -1.90827E+00 -1.45595E+00 -1.34403E+00 -5.30204E-02 -2.05021E+00 -1.35814E-01
   4.98551E-01 -1.74084E+00 -6.52362E-01 -1.55059E+00 -1.45473E+00 -2.13840E+00 -1.85348E+00 -1.45274E+00  8.20959E-02 -9.75829E-01
  -1.56376E+00 -1.02610E+00 -3.95418E-02 -2.75515E-01 -2.57709E+00 -1.79180E+00 -2.10435E-01  5.11451E-01 -2.87327E-01 -1.75637E+00
  -4.94323E-02 -1.04237E+00 -7.55488E-01  1.17032E+00  6.54203E-01  2.62168E-01  9.69885E-01 -9.56082E-01  1.81241E-01  1.23992E+00
   1.04732E-01 -1.85190E+00 -8.46256E-01  2.18273E+00 -9.34677E-01 -1.12301E+00 -9.48229E-01 -1.69324E+00 -3.04595E-01  7.30475E-01
  -9.05297E-01 -6.51962E-01 -1.95291E-01  4.74734E-01  7.16109E-01  1.29774E-01  8.75411E-01  1.38061E+00  1.26880E+00  1.11954E+00
   9.07484E-01  4.46163E-03  1.07415E+00  1.24542E+00  9.95801E-03  8.49079E-02  6.98195E-01  2.79874E-01  2.45337E-02 -5.62021E-01
   2.98860E-01 -1.93301E+00 -6.94512E-01  5.55881E-01  3.90795E-01  8.75143E-01 -3.75498E-01 -6.02347E-01 -7.69375E-01 -4.82839E-01
   6.93187E-01 -1.40920E+00 -8.57731E-01  2.06998E+00 -5.39996E-01 -6.45631E-02 -6.57660E-01 -6.18092E-01 -9.12602E-01 -1.04186E+00
   1.25193E+00 -6.90256E-02  9.80600E-01 -5.84042E-02  1.63089E+00 -7.96535E-01  8.06246E-01 -2.92783E-01  3.38371E-02  2.53238E-01
  -3.63871E-01  7.95927E-01  1.18444E-02  5.21457E-01 -8.94961E-02  1.42094E+00  1.03613E+00 -2.90031E-01  4.08105E-01 -1.76056E+00
  -2.37520E-01  5.60019E-01  1.76609E+00  7.90784E-01 -7.12063E-01  6.36124E-02  5.72083E-01  4.96245E-01 -1.21471E+00  1.60620E+00
  -4.22437E-01 -2.35581E-01 -6.13291E-01 -2.38089E-01  6.44634E-01  1.33409E+00 -1.41548E-02  1.55581E+00  3.44511E-01  2.49726E-01
   1.62802E+00  8.03919E-01  7.95500E-01  1.50927E+00  4.87765E-01  4.27574E-01  9.95775E-01  8.94071E-01  1.45570E+00  1.22142E+00
   2.13968E+00  2.35676E+00  1.46333E+00  6.23371E-01  1.69067E+00  1.84677E+00  1.21302E+00  3.92500E-01  1.05800E+00  7.63886E-01
   1.10277E+00  3.25408E-01  4.91717E-01 -1.24872E-01  2.05750E+00  4.88065E-01  7.40893E-01  8.02850E-01  9.35273E-01  1.21701E+00
   1.54133E+00  1.35181E+00  1.41600E-01  2.38547E+00  1.81270E+00  2.41390E+00  1.42712E+00  1.69181E+00  1.18263E+00  1.51449E-01
   2.06886E+00  1.53021E+00  1.52864E+00  1.01169E+00  2.31495E+00  7.09210E-01  1.67400E+00  1.99918E+00  1.95254E+00  7.79470E-01
   2.32729E-01  1.49532E+00  1.63645E+00  1.91852E+00  1.08161E+00  1.19365E+00  6.83386E-01  3.03036E+00  2.86586E+00  3.74969E+00
   2.54318E+00  1.24424E+00  3.01673E+00  2.40309E+00  3.86232E+00  5.59837E+00  4.06219E+00  3.15392E+00  2.66452E+00  1.63864E+00
   2.10830E+00  1.21033E+00  3.00903E+00  1.92308E+00  2.61610E+00  1.44065E+00  5.91658E-01  4.08700E-01  2.90599E+00  3.26022E+00
   1.51574E+00  4.46532E+00  2.40439E+00  1.87882E+00  3.42064E+00  1.76182E+00  3.48011E+00  1.28673E+00  2.76834E+00  2.32044E+00
   2.47722E+00  2.52975E+00  1.68986E+00  8.04926E-01  2.43802E+00  2.22954E+00  2.81735E+00  1.45565E+00  1.81552E+00  1.75385E+00
   2.63445E+00  3.19153E+00  4.18928E+00  1.80121E+00  1.83995E+00  2.19879E+00  2.82065E+00  1.23665E+00  2.84919E+00  1.87277E+00
   2.61911E+00  3.79341E+00  2.81295E+00  1.50472E+00  3.86353E+00  3.09727E+00  2.12467E+00  5.08170E+00  4.54372E+00  3.93447E+00
   4.64508E+00  3.72377E+00  3.82935E+00  3.50240E+00  3.79889E+00  3.41138E+00  4.17262E+00  3.11362E+00  6.21462E-01  2.86964E+00
   3.44923E+00  3.59568E+00  2.74152E+00  3.77576E+00  3.65832E+00  2.88536E+00  4.24190E+00  4.42452E+00  3.41458E+00  4.90923E+00
   3.80455E+00  4.70026E+00  5.41840E+00  3.17484E+00  4.51623E+00  3.76771E+00  4.44677E+00  4.86812E+00  5.18123E+00  5.33550E+00
   2.87402E+00  5.73145E+00  4.53052E+00  3.04077E+00  5.14451E+00  5.08120E+00  4.36141E+00  4.69822E+00  2.75476E+00  4.66392E+00
   3.15771E+00  3.17447E+00  4.94017E+00  4.60624E+00  4.48819E+00  3.94905E+00  5.60493E+00  4.35806E+00  3.80173E+00  3.75730E+00
   4.07066E+00  3.13222E+00  2.47923E+00  3.28060E+00  4.67896E+00  4.52407E+00  4.10767E+00  4.37018E+00  4.68261E+00  3.28398E+00
   3.23406E+00  4.29001E+00  3.26160E+00  3.97008E+00  3.82731E+00  4.03143E+00  3.07049E+00  1.22511E+00  3.62081E+00  3.26155E+00
   1.86625E+00  4.23908E+00  3.65934E+00  3.64673E+00  4.96549E+00  3.53679E+00  3.23958E+00  1.32239E+00  2.86219E+00  2.86364E+00
   1.57028E+00  7.77538E-01  3.61592E+00  2.00828E+00  2.64233E+00  3.19238E+00  2.27894E+00  1.97850E+00  1.89478E+00  2.29113E+00
   1.79341E+00  3.02834E+00  2.42559E+00  4.38640E+00  2.87009E+00  3.78466E+00  2.65186E+00  8.74249E-01  1.84736E+00  3.11752E+00
   2.63628E+00  1.19417E+00  2.57938E+00  3.00090E+00  2.13965E+00  1.44777E+00  2.66389E+00  2.04362E+00  2.32472E+00  2.90952E+00
   2.55344E+00  1.62102E+00  3.10912E+00  2.05811E+00  1.44131E+00  2.06597E+00  2.63781E+00  1.78543E+00  9.46813E-01  1.66627E+00
   1.39204E+00  2.11790E+00  2.31959E+00  2.53266E+00  1.75477E+00  2.39466E+00  7.19012E-01  1.37068E+00  1.18597E+00  9.17500E-01
   1.06655E+00  8.30091E-01  2.24091E+00  1.98828E+00  2.83666E+00  2.71517E+00  2.52746E+00  3.22635E+00  1.44978E+00  1.61507E+00
   2.06350E+00  3.10949E+00  2.17196E+00  7.26615E-01  2.37083E+00  2.00261E+00  1.57956E+00  1.62141E+00  3.64041E-01  1.01928E+00
   2.25206E+00  1.97727E+00  8.90843E-01  2.46225E+00  2.19528E+00  2.29140E+00  2.92463E+00  1.93227E+00  1.10556E+00  1.68135E+00
   1.65532E+00  2.00390E+00  1.29471E+00  2.66087E+00  9.42272E-01  2.47404E+00  2.74218E+00  3.67808E-01  1.64210E+00  9.48451E-01
   6.83353E-02  1.56082E+00  1.07581E+00  1.64104E+00  2.14095E+00  2.24912E+00  8.81244E-01  1.97170E+00
 NY points of the fit to the data follow
  -3.61732E+00 -3.64786E+00 -3.65026E+00 -3.62860E+00 -3.58786E+00 -3.53672E+00 -3.48106E+00 -3.43238E+00 -3.39173E+00 -3.35402E+00
  -3.32098E+00 -3.29236E+00 -3.26012E+00 -3.21435E+00 -3.14964E+00 -3.08093E+00 -3.02739E+00 -3.00843E+00 -3.03124E+00 -3.09320E+00
  -3.19045E+00 -3.31173E+00 -3.41996E+00 -3.47198E+00 -3.44995E+00 -3.37431E+00 -3.27812E+00 -3.17930E+00 -3.09231E+00 -3.02814E+00
  -2.99107E+00 -2.97619E+00 -2.97418E+00 -2.97780E+00 -2.97973E+00 -2.96984E+00 -2.92860E+00 -2.83336E+00 -2.68808E+00 -2.52877E+00
  -2.38906E+00 -2.29005E+00 -2.23486E+00 -2.21856E+00 -2.23042E+00 -2.24961E+00 -2.25285E+00 -2.24037E+00 -2.22172E+00 -2.19659E+00
  -2.16276E+00 -2.12299E+00 -2.08760E+00 -2.06630E+00 -2.06326E+00 -2.07874E+00 -2.11130E+00 -2.15530E+00 -2.20169E+00 -2.23637E+00
  -2.24313E+00 -2.21199E+00 -2.15451E+00 -2.09080E+00 -2.03128E+00 -1.97753E+00 -1.93080E+00 -1.89288E+00 -1.86400E+00 -1.84312E+00
  -1.82874E+00 -1.81824E+00 -1.80550E+00 -1.78502E+00 -1.75716E+00 -1.72268E+00 -1.68981E+00 -1.66994E+00 -1.67048E+00 -1.69190E+00
  -1.72908E+00 -1.77499E+00 -1.82362E+00 -1.86981E+00 -1.90969E+00 -1.93869E+00 -1.95537E+00 -1.96356E+00 -1.96610E+00 -1.96690E+00
  -1.96934E+00 -1.96994E+00 -1.93283E+00 -1.80702E+00 -1.60221E+00 -1.34753E+00 -1.07149E+00 -7.96992E-01 -5.39972E-01 -3.09522E-01
  -1.14088E-01  3.97883E-02  1.50204E-01  2.19728E-01  2.54643E-01  2.62379E-01  2.47074E-01  2.08496E-01  1.44296E-01  5.32875E-02
  -6.33585E-02 -2.05917E-01 -3.73435E-01 -5.62174E-01 -7.58213E-01 -9.28504E-01 -1.00245E+00 -9.43735E-01 -8.03641E-01 -6.21209E-01
  -4.21704E-01 -2.23743E-01 -3.96343E-02  1.25176E-01  2.68316E-01  3.87792E-01  4.81399E-01  5.48090E-01  5.90378E-01  6.12439E-01
   6.16178E-01  6.00293E-01  5.62283E-01  5.01601E-01  4.19915E-01  3.19486E-01  2.02257E-01  7.23134E-02 -5.87705E-02 -1.69164E-01
  -2.32432E-01 -2.52823E-01 -2.56729E-01 -2.53258E-01 -2.45205E-01 -2.33919E-01 -2.20064E-01 -2.04300E-01 -1.87686E-01 -1.71240E-01
  -1.56480E-01 -1.44296E-01 -1.33868E-01 -1.23937E-01 -1.12973E-01 -1.00405E-01 -8.66661E-02 -7.18281E-02 -5.59883E-02 -3.92459E-02
  -2.19169E-02 -4.39515E-03  1.31750E-02  3.06006E-02  4.76992E-02  6.37808E-02  7.80526E-02  9.15333E-02  1.05387E-01  1.20172E-01
   1.35295E-01  1.49863E-01  1.63709E-01  1.76684E-01  1.88786E-01  2.00317E-01  2.11264E-01  2.21857E-01  2.33780E-01  2.47895E-01
   2.64868E-01  2.85315E-01  3.08789E-01  3.34519E-01  3.62013E-01  3.91160E-01  4.22425E-01  4.55084E-01  4.87859E-01  5.19747E-01
   5.50676E-01  5.81765E-01  6.13527E-01  6.47168E-01  6.83728E-01  7.25271E-01  7.71168E-01  8.17855E-01  8.63881E-01  9.01243E-01
   9.23592E-01  9.29283E-01  9.19546E-01  9.00535E-01  8.83838E-01  8.95998E-01  9.51428E-01  1.04176E+00  1.15294E+00  1.26983E+00
   1.37563E+00  1.44514E+00  1.45561E+00  1.40772E+00  1.32244E+00  1.21906E+00  1.11550E+00  1.02779E+00  9.64466E-01  9.26316E-01
   9.05569E-01  8.92776E-01  8.82773E-01  8.67698E-01  8.45032E-01  8.17106E-01  7.92410E-01  7.85994E-01  8.14398E-01  8.88336E-01
   9.93675E-01  1.11053E+00  1.22322E+00  1.31981E+00  1.39037E+00  1.42585E+00  1.42733E+00  1.41421E+00  1.40471E+00  1.39976E+00
   1.39521E+00  1.38687E+00  1.37381E+00  1.35693E+00  1.33580E+00  1.31074E+00  1.28417E+00  1.25237E+00  1.21023E+00  1.17547E+00
   1.19415E+00  1.27779E+00  1.41492E+00  1.58843E+00  1.77978E+00  1.97150E+00  2.15246E+00  2.32236E+00  2.48242E+00  2.62991E+00
   2.75965E+00  2.86959E+00  2.95923E+00  3.02657E+00  3.06903E+00  3.08592E+00  3.07976E+00  3.05297E+00  3.00605E+00  2.93745E+00
   2.84412E+00  2.72574E+00  2.59591E+00  2.48495E+00  2.41502E+00  2.37029E+00  2.33928E+00  2.31871E+00  2.30521E+00  2.29495E+00
   2.28795E+00  2.28331E+00  2.27958E+00  2.27534E+00  2.26948E+00  2.26138E+00  2.25217E+00  2.24396E+00  2.23790E+00  2.23437E+00
   2.23364E+00  2.23581E+00  2.24079E+00  2.24827E+00  2.25782E+00  2.26952E+00  2.28348E+00  2.29965E+00  2.31797E+00  2.33835E+00
   2.36053E+00  2.38404E+00  2.40837E+00  2.43305E+00  2.45752E+00  2.48118E+00  2.50355E+00  2.52418E+00  2.54278E+00  2.55926E+00
   2.57378E+00  2.58693E+00  2.59987E+00  2.61503E+00  2.63808E+00  2.68896E+00  2.82431E+00  3.05401E+00  3.32615E+00  3.59205E+00
   3.81502E+00  3.96747E+00  4.02469E+00  3.95151E+00  3.76036E+00  3.52503E+00  3.29613E+00  3.10136E+00  2.95552E+00  2.86004E+00
   2.80371E+00  2.77185E+00  2.75505E+00  2.75041E+00  2.75750E+00  2.78050E+00  2.85030E+00  2.99453E+00  3.21156E+00  3.50299E+00
   3.86079E+00  4.21896E+00  4.50454E+00  4.67874E+00  4.74475E+00  4.72447E+00  4.62436E+00  4.45740E+00  4.28074E+00  4.14866E+00
   4.05690E+00  3.99265E+00  3.94682E+00  3.91373E+00  3.88831E+00  3.86471E+00  3.83953E+00  3.81564E+00  3.80416E+00  3.82216E+00
   3.88358E+00  3.97040E+00  4.04930E+00  4.10956E+00  4.14433E+00  4.14405E+00  4.09997E+00  4.01561E+00  3.92325E+00  3.84536E+00
   3.77971E+00  3.72303E+00  3.67322E+00  3.62878E+00  3.58865E+00  3.55202E+00  3.51829E+00  3.48698E+00  3.45770E+00  3.43015E+00
   3.40407E+00  3.37928E+00  3.35561E+00  3.33293E+00  3.31110E+00  3.29003E+00  3.26963E+00  3.24982E+00  3.23055E+00  3.21175E+00
   3.19336E+00  3.17535E+00  3.15766E+00  3.14027E+00  3.12314E+00  3.10624E+00  3.08955E+00  3.07303E+00  3.05666E+00  3.04043E+00
   3.02432E+00  3.00831E+00  2.99238E+00  2.97651E+00  2.96070E+00  2.94493E+00  2.92919E+00  2.91346E+00  2.89775E+00  2.88203E+00
   2.86630E+00  2.85056E+00  2.83479E+00  2.81898E+00  2.80314E+00  2.78724E+00  2.77130E+00  2.75530E+00  2.73923E+00  2.72309E+00
   2.70688E+00  2.69059E+00  2.67422E+00  2.65777E+00  2.64122E+00  2.62457E+00  2.60783E+00  2.59099E+00  2.57405E+00  2.55700E+00
   2.53983E+00  2.52255E+00  2.50516E+00  2.48765E+00  2.47002E+00  2.45227E+00  2.43439E+00  2.41638E+00  2.39824E+00  2.37998E+00
   2.36158E+00  2.34304E+00  2.32437E+00  2.30555E+00  2.28660E+00  2.26751E+00  2.24827E+00  2.22889E+00  2.20935E+00  2.18968E+00
   2.16985E+00  2.14987E+00  2.12974E+00  2.10945E+00  2.08901E+00  2.06841E+00  2.04766E+00  2.02674E+00  2.00566E+00  1.98442E+00
   1.96302E+00  1.94146E+00  1.91973E+00  1.89783E+00  1.87576E+00  1.85351E+00  1.83110E+00  1.80852E+00  1.78576E+00  1.76282E+00
   1.73970E+00  1.71640E+00  1.69292E+00  1.66926E+00  1.64540E+00  1.62136E+00  1.59713E+00  1.57270E+00  1.54808E+00  1.52326E+00
   1.49823E+00  1.47300E+00  1.44756E+00  1.42190E+00  1.39602E+00  1.36992E+00  1.34358E+00  1.31701E+00  1.29020E+00  1.26313E+00
   1.23579E+00  1.20819E+00  1.18030E+00  1.15210E+00  1.12360E+00  1.09476E+00  1.06556E+00  1.03598E+00
 NY background values follow
    -4.404E+00   -4.378E+00   -4.352E+00   -4.326E+00   -4.300E+00   -4.274E+00   -4.248E+00   -4.221E+00   -4.195E+00   -4.169E+00
    -4.142E+00   -4.116E+00   -4.089E+00   -4.063E+00   -4.036E+00   -4.009E+00   -3.983E+00   -3.956E+00   -3.929E+00   -3.902E+00
    -3.876E+00   -3.849E+00   -3.822E+00   -3.795E+00   -3.768E+00   -3.741E+00   -3.714E+00   -3.687E+00   -3.659E+00   -3.632E+00
    -3.605E+00   -3.578E+00   -3.551E+00   -3.523E+00   -3.496E+00   -3.469E+00   -3.441E+00   -3.414E+00   -3.386E+00   -3.359E+00
    -3.331E+00   -3.304E+00   -3.276E+00   -3.249E+00   -3.221E+00   -3.194E+00   -3.166E+00   -3.138E+00   -3.111E+00   -3.083E+00
    -3.056E+00   -3.028E+00   -3.000E+00   -2.972E+00   -2.945E+00   -2.917E+00   -2.889E+00   -2.861E+00   -2.834E+00   -2.806E+00
    -2.778E+00   -2.750E+00   -2.722E+00   -2.695E+00   -2.667E+00   -2.639E+00   -2.611E+00   -2.583E+00   -2.555E+00   -2.528E+00
    -2.500E+00   -2.472E+00   -2.444E+00   -2.416E+00   -2.388E+00   -2.361E+00   -2.333E+00   -2.305E+00   -2.277E+00   -2.249E+00
    -2.222E+00   -2.194E+00   -2.166E+00   -2.138E+00   -2.111E+00   -2.083E+00   -2.055E+00   -2.027E+00   -2.000E+00   -1.972E+00
    -1.944E+00   -1.917E+00   -1.889E+00   -1.861E+00   -1.834E+00   -1.806E+00   -1.779E+00   -1.751E+00   -1.724E+00   -1.696E+00
    -1.669E+00   -1.641E+00   -1.614E+00   -1.586E+00   -1.559E+00   -1.532E+00   -1.504E+00   -1.477E+00   -1.450E+00   -1.422E+00
    -1.395E+00   -1.368E+00   -1.341E+00   -1.314E+00   -1.287E+00   -1.260E+00   -1.233E+00   -1.206E+00   -1.179E+00   -1.152E+00
    -1.125E+00   -1.098E+00   -1.071E+00   -1.045E+00   -1.018E+00   -9.914E-01   -9.648E-01   -9.382E-01   -9.117E-01   -8.852E-01
    -8.588E-01   -8.324E-01   -8.061E-01   -7.798E-01   -7.535E-01   -7.274E-01   -7.012E-01   -6.751E-01   -6.491E-01   -6.231E-01
    -5.972E-01   -5.713E-01   -5.455E-01   -5.198E-01   -4.941E-01   -4.684E-01   -4.428E-01   -4.173E-01   -3.918E-01   -3.664E-01
    -3.411E-01   -3.158E-01   -2.906E-01   -2.654E-01   -2.403E-01   -2.153E-01   -1.903E-01   -1.654E-01   -1.406E-01   -1.158E-01
    -9.111E-02   -6.648E-02   -4.192E-02   -1.743E-02    6.991E-03    3.134E-02    5.561E-02    7.982E-02    1.039E-01    1.280E-01
     1.520E-01    1.759E-01    1.997E-01    2.235E-01    2.471E-01    2.707E-01    2.942E-01    3.177E-01    3.410E-01    3.643E-01
     3.875E-01    4.106E-01    4.336E-01    4.565E-01    4.794E-01    5.021E-01    5.248E-01    5.474E-01    5.699E-01    5.923E-01
     6.147E-01    6.369E-01    6.591E-01    6.811E-01    7.031E-01    7.249E-01    7.467E-01    7.684E-01    7.900E-01    8.115E-01
     8.329E-01    8.542E-01    8.754E-01    8.965E-01    9.175E-01    9.384E-01    9.593E-01    9.800E-01    1.001E+00    1.021E+00
     1.042E+00    1.062E+00    1.082E+00    1.102E+00    1.122E+00    1.142E+00    1.162E+00    1.181E+00    1.201E+00    1.220E+00
     1.240E+00    1.259E+00    1.278E+00    1.297E+00    1.316E+00    1.335E+00    1.354E+00    1.372E+00    1.391E+00    1.409E+00
     1.427E+00    1.445E+00    1.463E+00    1.481E+00    1.499E+00    1.517E+00    1.534E+00    1.552E+00    1.569E+00    1.586E+00
     1.603E+00    1.620E+00    1.637E+00    1.654E+00    1.670E+00    1.687E+00    1.703E+00    1.719E+00    1.735E+00    1.751E+00
     1.767E+00    1.783E+00    1.798E+00    1.814E+00    1.829E+00    1.844E+00    1.859E+00    1.874E+00    1.889E+00    1.904E+00
     1.918E+00    1.933E+00    1.947E+00    1.961E+00    1.975E+00    1.989E+00    2.003E+00    2.016E+00    2.030E+00    2.043E+00
     2.056E+00    2.069E+00    2.082E+00    2.095E+00    2.108E+00    2.120E+00    2.133E+00    2.145E+00    2.157E+00    2.169E+00
     2.181E+00    2.192E+00    2.204E+00    2.215E+00    2.226E+00    2.237E+00    2.248E+00    2.259E+00    2.270E+00    2.280E+00
     2.291E+00    2.301E+00    2.311E+00    2.321E+00    2.331E+00    2.340E+00    2.350E+00    2.359E+00    2.368E+00    2.377E+00
     2.386E+00    2.395E+00    2.403E+00    2.412E+00    2.420E+00    2.428E+00    2.436E+00    2.444E+00    2.452E+00    2.459E+00
     2.466E+00    2.474E+00    2.481E+00    2.488E+00    2.494E+00    2.501E+00    2.507E+00    2.514E+00    2.520E+00    2.526E+00
     2.531E+00    2.537E+00    2.542E+00    2.548E+00    2.553E+00    2.558E+00    2.563E+00    2.567E+00    2.572E+00    2.576E+00
     2.580E+00    2.584E+00    2.588E+00    2.592E+00    2.595E+00    2.599E+00    2.602E+00    2.605E+00    2.608E+00    2.610E+00
     2.613E+00    2.615E+00    2.618E+00    2.620E+00    2.621E+00    2.623E+00    2.625E+00    2.626E+00    2.627E+00    2.628E+00
     2.629E+00    2.630E+00    2.630E+00    2.631E+00    2.631E+00    2.631E+00    2.631E+00    2.630E+00    2.630E+00    2.629E+00
     2.628E+00    2.627E+00    2.626E+00    2.625E+00    2.623E+00    2.622E+00    2.620E+00    2.618E+00    2.615E+00    2.613E+00
     2.610E+00    2.608E+00    2.605E+00    2.602E+00    2.598E+00    2.595E+00    2.591E+00    2.588E+00    2.584E+00    2.580E+00
     2.575E+00    2.571E+00    2.566E+00    2.561E+00    2.556E+00    2.551E+00    2.546E+00    2.540E+00    2.534E+00    2.528E+00
     2.522E+00    2.516E+00    2.510E+00    2.503E+00    2.496E+00    2.489E+00    2.482E+00    2.475E+00    2.467E+00    2.460E+00
     2.452E+00    2.444E+00    2.436E+00    2.427E+00    2.419E+00    2.410E+00    2.401E+00    2.392E+00    2.383E+00    2.373E+00
     2.363E+00    2.354E+00    2.344E+00    2.333E+00    2.323E+00    2.312E+00    2.302E+00    2.291E+00    2.280E+00    2.268E+00
     2.257E+00    2.245E+00    2.233E+00    2.221E+00    2.209E+00    2.197E+00    2.184E+00    2.172E+00    2.159E+00    2.146E+00
     2.132E+00    2.119E+00    2.105E+00    2.091E+00    2.077E+00    2.063E+00    2.049E+00    2.034E+00    2.020E+00    2.005E+00
     1.990E+00    1.974E+00    1.959E+00    1.943E+00    1.928E+00    1.912E+00    1.895E+00    1.879E+00    1.863E+00    1.846E+00
     1.829E+00    1.812E+00    1.795E+00    1.777E+00    1.760E+00    1.742E+00    1.724E+00    1.706E+00    1.687E+00    1.669E+00
     1.650E+00    1.631E+00    1.612E+00    1.593E+00    1.573E+00    1.554E+00    1.534E+00    1.514E+00    1.494E+00    1.474E+00
     1.453E+00    1.432E+00    1.412E+00    1.391E+00    1.369E+00    1.348E+00    1.326E+00    1.305E+00    1.283E+00    1.261E+00
     1.238E+00    1.216E+00    1.193E+00    1.170E+00    1.147E+00    1.124E+00    1.101E+00    1.077E+00    1.054E+00    1.030E+00
     1.006E+00    9.814E-01    9.569E-01    9.323E-01    9.076E-01    8.826E-01    8.575E-01    8.322E-01
 Ala      Conc. = 2.79E+02
