 LCModel (Version 6.3-1L) Copyright: S.W. Provencher.          Ref.: Magn. Reson. Med. 30:672-679 (1993).                
 Slice#3 Row#4 Col#1  K_02_press_1_raw_act
 36 lines in following concentration table = NCONC+1
    Conc.  %SD /Cr+PCr  Metabolite                                         
    0.000 999%   0.000 Ala                                                 
   13.503  25%   0.619 Asp                                                 
   21.814  59%   1.000 Cr                                                  
    0.000 999%   0.000 PCr                                                 
    8.000  25%   0.367 GABA                                                
    8.075  25%   0.370 Glc                                                 
    0.000 999%   0.000 Gln                                                 
    0.000 999%   0.000 Glu                                                 
    0.000 999%   0.000 GPC                                                 
    2.446 196%   0.112 PCh                                                 
   23.912  79%   1.096 GSH                                                 
  219.536  29%  10.064 Ins                                                 
   97.942  56%   4.490 Lac                                                 
  239.295  14%  10.970 NAA                                                 
    0.000 999%   0.000 NAAG                                                
    2.782  25%   0.128 Scyllo                                              
   13.671  25%   0.627 Tau                                                 
    8.627 141%   0.395 -CrCH2                                              
    2.446 196%   0.112 GPC+PCh                                             
  239.295  14%  10.970 NAA+NAAG                                            
   21.814  59%   1.000 Cr+PCr                                              
    0.000 999%   0.000 Glu+Gln                                             
 5.77E+03  13% 264.630 Lip13a                                              
    0.000 999%   0.000 Lip13b                                              
    0.000 999%   0.000 Lip09                                               
 2.12E+03  12%  97.081 MM09                                                
 2.22E+03  13% 101.878+Lip20                                               
 8.28E+03   6% 379.782 MM20                                                
  776.558  41%  35.599 MM12                                                
 6.70E+03   9% 306.957 MM14                                                
 5.92E+03   7% 271.379+MM17                                                
 5.77E+03  13% 264.630 Lip13a+Lip13b                                       
 1.32E+04   6% 607.186 MM14+Lip13a+Lip13b+MM12                             
 2.12E+03  12%  97.081 MM09+Lip09                                          
 1.05E+04   5% 481.659 MM20+Lip20                                          
   6 lines in following misc. output table
  FWHM = 0.107 ppm    S/N =   5                                            
  Data shift = 0.260 ppm                                                   
  Ph: 133 deg     109.1 deg/ppm                                            
  alphaB,S = 2.1E+00,   5.5E+00                                            
    6 spline knots.   Ns = 9(2)                                            
   4 inflections.     2 extrema                                            
  498 points on ppm-axis = NY
      4.000000     3.992357     3.984714     3.977070     3.969427     3.961784     3.954141     3.946497     3.938854     3.931211
      3.923568     3.915925     3.908281     3.900638     3.892995     3.885352     3.877708     3.870065     3.862422     3.854779
      3.847136     3.839492     3.831849     3.824206     3.816563     3.808919     3.801276     3.793633     3.785990     3.778347
      3.770703     3.763060     3.755417     3.747774     3.740130     3.732487     3.724844     3.717201     3.709558     3.701914
      3.694271     3.686628     3.678985     3.671341     3.663698     3.656055     3.648412     3.640769     3.633125     3.625482
      3.617839     3.610196     3.602552     3.594909     3.587266     3.579623     3.571980     3.564336     3.556693     3.549050
      3.541407     3.533763     3.526120     3.518477     3.510834     3.503191     3.495547     3.487904     3.480261     3.472618
      3.464974     3.457331     3.449688     3.442045     3.434402     3.426758     3.419115     3.411472     3.403829     3.396185
      3.388542     3.380899     3.373256     3.365613     3.357969     3.350326     3.342683     3.335040     3.327396     3.319753
      3.312110     3.304467     3.296824     3.289180     3.281537     3.273894     3.266251     3.258607     3.250964     3.243321
      3.235678     3.228034     3.220391     3.212748     3.205105     3.197462     3.189818     3.182175     3.174532     3.166889
      3.159245     3.151602     3.143959     3.136316     3.128673     3.121029     3.113386     3.105743     3.098100     3.090456
      3.082813     3.075170     3.067527     3.059884     3.052240     3.044597     3.036954     3.029311     3.021667     3.014024
      3.006381     2.998738     2.991095     2.983451     2.975808     2.968165     2.960522     2.952878     2.945235     2.937592
      2.929949     2.922306     2.914662     2.907019     2.899376     2.891733     2.884089     2.876446     2.868803     2.861160
      2.853517     2.845873     2.838230     2.830587     2.822944     2.815300     2.807657     2.800014     2.792371     2.784728
      2.777084     2.769441     2.761798     2.754155     2.746511     2.738868     2.731225     2.723582     2.715939     2.708295
      2.700652     2.693009     2.685366     2.677722     2.670079     2.662436     2.654793     2.647150     2.639506     2.631863
      2.624220     2.616577     2.608933     2.601290     2.593647     2.586004     2.578361     2.570717     2.563074     2.555431
      2.547788     2.540144     2.532501     2.524858     2.517215     2.509572     2.501928     2.494285     2.486642     2.478999
      2.471355     2.463712     2.456069     2.448426     2.440783     2.433139     2.425496     2.417853     2.410210     2.402566
      2.394923     2.387280     2.379637     2.371994     2.364350     2.356707     2.349064     2.341421     2.333777     2.326134
      2.318491     2.310848     2.303205     2.295561     2.287918     2.280275     2.272632     2.264988     2.257345     2.249702
      2.242059     2.234416     2.226772     2.219129     2.211486     2.203843     2.196199     2.188556     2.180913     2.173270
      2.165627     2.157983     2.150340     2.142697     2.135054     2.127410     2.119767     2.112124     2.104481     2.096838
      2.089194     2.081551     2.073908     2.066265     2.058621     2.050978     2.043335     2.035692     2.028049     2.020405
      2.012762     2.005119     1.997476     1.989833     1.982190     1.974546     1.966903     1.959260     1.951617     1.943974
      1.936331     1.928688     1.921045     1.913402     1.905759     1.898115     1.890472     1.882829     1.875186     1.867543
      1.859900     1.852257     1.844614     1.836971     1.829327     1.821684     1.814041     1.806398     1.798755     1.791112
      1.783469     1.775826     1.768183     1.760540     1.752896     1.745253     1.737610     1.729967     1.722324     1.714681
      1.707038     1.699395     1.691752     1.684108     1.676465     1.668822     1.661179     1.653536     1.645893     1.638250
      1.630607     1.622964     1.615321     1.607677     1.600034     1.592391     1.584748     1.577105     1.569462     1.561819
      1.554176     1.546533     1.538890     1.531246     1.523603     1.515960     1.508317     1.500674     1.493031     1.485388
      1.477745     1.470102     1.462458     1.454815     1.447172     1.439529     1.431886     1.424243     1.416600     1.408957
      1.401314     1.393671     1.386027     1.378384     1.370741     1.363098     1.355455     1.347812     1.340169     1.332526
      1.324883     1.317240     1.309596     1.301953     1.294310     1.286667     1.279024     1.271381     1.263738     1.256095
      1.248452     1.240808     1.233165     1.225522     1.217879     1.210236     1.202593     1.194950     1.187307     1.179664
      1.172021     1.164377     1.156734     1.149091     1.141448     1.133805     1.126162     1.118519     1.110876     1.103233
      1.095590     1.087946     1.080303     1.072660     1.065017     1.057374     1.049731     1.042088     1.034445     1.026802
      1.019158     1.011515     1.003872     0.996229     0.988586     0.980943     0.973300     0.965657     0.958014     0.950371
      0.942727     0.935084     0.927441     0.919798     0.912155     0.904512     0.896869     0.889226     0.881583     0.873940
      0.866296     0.858653     0.851010     0.843367     0.835724     0.828081     0.820438     0.812795     0.805152     0.797508
      0.789865     0.782222     0.774579     0.766936     0.759293     0.751650     0.744007     0.736364     0.728721     0.721077
      0.713434     0.705791     0.698148     0.690505     0.682862     0.675219     0.667576     0.659933     0.652290     0.644646
      0.637003     0.629360     0.621717     0.614074     0.606431     0.598788     0.591145     0.583502     0.575858     0.568215
      0.560572     0.552929     0.545286     0.537643     0.530000     0.522357     0.514714     0.507071     0.499427     0.491784
      0.484141     0.476498     0.468855     0.461212     0.453569     0.445925     0.438282     0.430639     0.422996     0.415353
      0.407710     0.400067     0.392424     0.384780     0.377137     0.369494     0.361851     0.354208     0.346565     0.338922
      0.331278     0.323635     0.315992     0.308349     0.300706     0.293063     0.285420     0.277777     0.270133     0.262490
      0.254847     0.247204     0.239561     0.231918     0.224275     0.216631     0.208988     0.201345
 NY phased data points follow
   5.75680E+00  6.85168E+00  8.36540E+00  4.99349E+00  6.30405E+00  6.52293E+00  4.68720E+00  4.39560E+00  4.21140E+00  1.20259E+00
   3.89668E+00  4.90487E+00  1.62424E+00  3.24313E+00  3.72269E+00  2.58491E+00  2.05695E+00  4.23454E+00  1.25383E+00  2.95810E+00
  -1.27552E+00  2.89090E-02  2.38408E+00  1.83493E-01 -8.35306E-01  1.06756E+00  2.77461E+00  4.05428E+00  3.87430E+00  4.42097E-01
   7.03816E-01  1.13245E+00 -2.14840E+00  1.53997E+00  9.38226E-01  2.00796E+00 -4.31588E-01  3.36796E+00  5.57870E-01 -1.44986E+00
   2.45252E-01 -1.52756E+00  1.80795E-02 -2.18318E-01  4.56808E-02  1.89974E+00 -7.84156E-01 -1.29644E+00  1.68348E+00  8.24522E-01
  -4.11798E+00 -2.08538E+00 -1.68331E-01  1.26719E+00  1.34544E+00 -6.26034E-01  2.91272E+00  1.12368E+00  5.09465E-01  1.87430E-01
  -2.17361E+00  3.05431E-02  1.93539E-01 -1.01857E+00 -3.27352E+00  3.42253E+00  1.73718E+00  1.90427E+00  2.42726E+00  2.38920E+00
   1.17791E+00  2.08915E+00  2.06386E+00 -1.27572E+00 -8.90264E-01  1.19937E+00 -2.46735E+00  1.13636E+00  1.73686E+00  1.17478E+00
  -5.56179E-01  9.67299E-01 -1.94035E+00  6.93353E-01 -1.45292E-01  2.70951E-01 -4.77685E-01  1.51299E+00  1.11180E+00 -2.52165E+00
  -2.26941E+00  1.10715E+00  2.72606E+00 -4.99312E-01  1.33721E+00 -1.70599E-01  2.95804E+00 -6.73300E-01  4.30113E-01 -2.45398E-01
  -2.44662E+00 -2.37377E+00  2.73884E-01 -4.12150E+00  3.12595E-01 -9.08132E-01  5.24427E-01 -9.90102E-01 -2.41257E+00  1.15971E+00
  -2.68473E+00 -6.15517E-01  1.86169E+00 -2.07204E+00 -3.81585E+00 -2.51252E+00 -2.10717E+00 -4.12285E+00  2.41543E+00 -2.28748E+00
  -2.69643E+00  9.50076E-01 -5.27074E-01 -1.06059E+00 -1.34217E+00 -6.67880E-01 -2.35074E+00 -1.29805E-01 -2.50240E+00  2.68719E+00
  -1.52401E+00  1.09970E-01 -1.40610E+00  3.69518E-01 -2.15023E+00  1.16102E+00  7.06133E-01 -1.00910E+00 -7.48920E-01 -7.10712E-01
  -2.05353E+00  2.26096E+00  3.62008E+00  5.65043E-01 -1.84730E+00  2.58985E+00  3.80979E+00 -7.91952E-01  2.43682E+00 -1.77935E-01
   1.59797E+00  4.60982E-01  2.03273E+00  1.81624E-01 -7.99582E-01 -8.65458E-01  1.28303E+00 -1.97453E+00  2.10387E+00 -1.77222E+00
  -2.04238E+00 -9.48365E-01 -3.54909E+00 -2.19423E+00 -2.44297E+00 -2.51545E+00 -5.38860E+00 -7.40200E+00 -3.35540E+00 -4.99119E+00
  -8.01911E+00 -8.93211E+00 -8.06555E+00 -8.40378E+00 -1.24772E+01 -1.07069E+01 -9.35647E+00 -1.31978E+01 -1.07385E+01 -1.17192E+01
  -1.08513E+01 -1.64372E+01 -1.55265E+01 -1.37768E+01 -1.76923E+01 -1.90214E+01 -1.91332E+01 -2.07063E+01 -1.98900E+01 -1.82307E+01
  -1.93742E+01 -1.93287E+01 -2.27974E+01 -2.08972E+01 -2.34991E+01 -2.44760E+01 -2.55901E+01 -2.30040E+01 -2.36822E+01 -2.68974E+01
  -2.07118E+01 -2.44410E+01 -2.14337E+01 -2.58708E+01 -2.76905E+01 -2.51676E+01 -2.62069E+01 -2.55508E+01 -2.52690E+01 -2.25474E+01
  -2.50005E+01 -2.47550E+01 -2.45938E+01 -2.16316E+01 -2.13471E+01 -2.10684E+01 -2.37933E+01 -2.21865E+01 -2.22489E+01 -2.03830E+01
  -2.42820E+01 -1.90885E+01 -1.60536E+01 -1.83708E+01 -1.73808E+01 -1.75295E+01 -1.72283E+01 -1.82609E+01 -1.73135E+01 -1.81591E+01
  -1.90672E+01 -1.75939E+01 -1.56164E+01 -1.71022E+01 -1.24836E+01 -1.30815E+01 -1.33194E+01 -1.15887E+01 -8.13891E+00 -1.03134E+01
  -1.09437E+01 -8.58452E+00 -6.66748E+00 -6.86125E+00 -6.58342E+00 -1.09363E+01 -9.34618E+00 -4.96558E+00 -3.27438E+00 -2.33882E+00
  -3.49965E+00 -2.86850E+00 -3.92859E+00 -2.33235E+00 -3.87289E+00 -4.36009E+00 -3.73739E+00 -2.43459E+00 -3.03758E+00 -1.22471E+00
  -8.71028E-01 -2.83613E+00 -2.11103E+00 -2.45830E+00 -3.73934E+00 -1.66044E+00 -2.13371E+00  2.13677E+00 -8.91529E-01  1.87467E+00
   2.85573E+00  1.40041E+00  8.80042E-01 -2.77954E+00 -5.76047E-01 -1.94597E+00  2.98694E+00  6.46882E-01 -1.42427E+00  5.56301E+00
   2.78088E+00  2.34886E+00  1.02206E-01  2.12856E+00 -2.40157E+00  2.82291E+00 -2.53297E-01  1.13267E+00  3.50340E+00  1.87864E+00
   1.50326E+00  4.39140E+00  3.53331E+00  2.65043E+00  5.29693E+00  3.89134E+00  2.68376E+00  8.84759E-01  5.92459E-01  3.99323E+00
   3.23469E+00  4.20629E+00  2.56432E+00  3.69404E+00  3.38795E+00  7.44533E+00  5.65595E+00  9.91631E+00  1.00472E+01  6.07694E+00
   3.94735E+00  3.82936E+00  7.05487E+00  6.96856E+00  1.80700E+00  7.96001E+00  4.57511E+00  7.47305E+00  5.61156E+00  4.41885E+00
   6.08407E+00  7.85517E+00  8.30343E+00  5.87450E+00  5.69689E+00  5.89716E+00  8.76352E+00  3.10507E+00  4.63861E+00  5.94410E+00
   6.60973E+00  4.40560E+00  6.37276E+00  4.72133E+00  6.64182E+00  5.99483E+00  6.71200E+00  4.33416E+00  3.81182E+00  2.84131E+00
   2.58679E+00  3.48598E+00  5.64032E+00  5.37244E-02  1.31084E+00  1.16278E+00  3.16665E+00  4.64664E+00  4.83054E+00  5.11671E+00
   2.61649E+00  3.11350E+00  2.96921E+00  3.88299E+00  1.21385E+00  3.16819E+00  3.17383E+00  4.21208E+00  2.77856E+00  1.12639E+00
   4.58646E+00  4.13092E+00  3.17336E+00  2.52707E+00  3.31758E+00  4.58242E+00  3.53299E+00  3.53572E+00  2.60394E+00  1.97447E+00
   8.08937E-01  5.06337E+00  5.80946E+00  5.58976E+00  5.43014E+00  3.61500E+00  3.61338E+00  5.88417E+00  1.30156E-01  3.10993E+00
   3.98038E+00  4.76515E+00  3.70044E+00  6.98250E+00  6.25183E+00  7.30470E+00  5.54827E+00  5.89251E+00  4.58687E+00  5.46066E+00
   6.58537E+00  3.11852E+00  4.04891E+00  3.82281E+00  3.53672E+00  6.59871E+00  3.86473E+00  5.02737E+00  5.16418E+00  3.89733E+00
   4.44983E+00  7.20504E+00  4.43812E+00  5.65816E+00  2.91342E+00  2.35025E+00  2.81857E+00  8.36388E+00  6.96570E+00  3.59785E+00
   3.22892E+00  6.37519E+00  7.27012E+00  3.17402E+00  6.56925E+00  5.87515E+00  2.86935E+00  3.69667E+00  5.07032E+00  4.50923E+00
   2.48875E+00  4.84664E+00  3.09459E+00  1.60945E+00  2.71548E+00  5.84245E+00  4.40044E+00  3.27672E+00  4.80417E+00  2.94133E+00
   3.47536E+00  4.32296E+00  3.03433E+00  3.88499E+00  4.15656E+00  6.47729E+00  5.93685E+00  3.05663E+00  3.19479E+00  5.20766E+00
   3.15634E+00  7.09215E+00  1.74842E+00  5.78740E+00  2.16096E+00  3.79710E+00  3.53719E+00  4.55938E+00  3.72501E+00  2.56251E+00
   2.10782E+00  3.40175E+00  2.84291E+00  3.40731E+00  2.60900E+00  1.85584E-01  4.66403E+00  1.81770E+00  4.23216E+00  3.13807E+00
   1.70003E+00  5.81940E+00  2.36448E+00  3.55122E+00  4.06113E+00  3.53766E+00  3.31561E+00  3.25934E+00  6.50013E+00  1.31233E+00
   4.50563E+00  2.05818E+00  4.07668E+00  3.96508E+00  1.73013E+00  2.36331E+00  4.20025E+00  3.43134E+00  3.03096E+00  2.04440E+00
   2.66794E+00  3.27959E+00  4.39536E+00  2.99319E+00  3.06293E+00  3.46203E+00  1.63143E+00  5.44918E+00  2.28474E+00 -6.30195E-01
   2.03640E+00  1.64157E+00  1.69730E+00  1.44695E+00  2.58445E+00  1.95391E+00  1.87057E+00 -1.63449E+00
 NY points of the fit to the data follow
   4.83791E+00  5.17028E+00  4.78127E+00  4.87537E+00  4.94860E+00  5.10041E+00  5.08898E+00  5.43867E+00  5.32664E+00  5.48339E+00
   4.96110E+00  4.62876E+00  3.93889E+00  3.12521E+00  2.78917E+00  2.64217E+00  2.29573E+00  2.34135E+00  2.21417E+00  2.16563E+00
   1.85823E+00  1.78137E+00  1.53642E+00  1.56233E+00  1.54912E+00  1.71100E+00  1.74418E+00  1.84790E+00  1.93451E+00  1.84359E+00
   1.45280E+00  8.29028E-01  6.68148E-01  8.76968E-01  1.36311E+00  1.45792E+00  1.61437E+00  1.37231E+00  1.34566E+00  1.06083E+00
   1.04476E+00  8.75580E-01  9.59282E-01  1.06185E+00  1.41159E+00  1.60797E+00  1.88270E+00  1.90001E+00  1.91223E+00  1.60037E+00
   1.02324E+00  1.17326E+00  1.34092E+00  1.73923E+00  1.81162E+00  2.11995E+00  2.02221E+00  1.84434E+00  1.34673E+00  1.19221E+00
   1.08366E+00  1.22467E+00  1.36281E+00  1.55544E+00  1.60140E+00  1.62932E+00  1.51042E+00  7.01262E-01 -2.41690E-01 -6.92703E-01
  -5.00299E-01 -3.12950E-01 -8.87876E-02  6.41198E-02  2.74085E-01  3.92013E-01  6.38723E-01  6.63962E-01  9.68501E-01  7.41123E-01
   6.59232E-01  4.11186E-01  3.71328E-01  3.13820E-01  3.98123E-01  2.31496E-01  3.34679E-01  4.84336E-02  6.82463E-02 -2.13203E-01
  -1.49413E-01 -4.50064E-01 -6.83791E-01 -1.13066E+00 -1.29993E+00 -1.73314E+00 -1.97940E+00 -2.22920E+00 -2.33254E+00 -2.39719E+00
  -2.37662E+00 -2.42745E+00 -2.53268E+00 -2.64286E+00 -2.80285E+00 -2.90419E+00 -3.16453E+00 -2.97038E+00 -2.82689E+00 -2.71395E+00
  -2.61414E+00 -2.63890E+00 -2.56562E+00 -2.47823E+00 -2.45212E+00 -2.58702E+00 -2.63067E+00 -2.83089E+00 -2.64604E+00 -2.66988E+00
  -2.32219E+00 -2.28628E+00 -1.99703E+00 -1.97029E+00 -1.83805E+00 -1.61198E+00 -1.51092E+00 -1.27018E+00 -1.21317E+00 -9.89645E-01
  -9.46713E-01 -6.31325E-01 -6.10762E-01 -3.19025E-01 -3.63255E-01 -1.61033E-01 -2.50074E-01 -2.57074E-01 -3.74723E-01 -4.51456E-01
  -5.07899E-01 -4.57135E-01 -4.78961E-01 -4.70504E-01 -4.16327E-01 -4.72219E-01 -4.69344E-01 -1.17898E+00 -1.33974E+00 -1.53083E+00
  -1.50616E+00 -1.64120E+00 -1.58683E+00 -1.83646E+00 -1.90391E+00 -2.05732E+00 -2.10690E+00 -2.28246E+00 -2.39275E+00 -2.59648E+00
  -2.90986E+00 -3.22681E+00 -3.69361E+00 -4.08086E+00 -4.49308E+00 -4.89313E+00 -5.41635E+00 -5.88923E+00 -6.51261E+00 -6.97126E+00
  -7.45531E+00 -7.99931E+00 -8.43260E+00 -9.15072E+00 -9.63760E+00 -1.03643E+01 -1.08755E+01 -1.15766E+01 -1.20888E+01 -1.27950E+01
  -1.33046E+01 -1.39999E+01 -1.43191E+01 -1.50040E+01 -1.54597E+01 -1.61731E+01 -1.68574E+01 -1.72904E+01 -1.78542E+01 -1.82275E+01
  -1.87601E+01 -1.90917E+01 -1.96234E+01 -1.98501E+01 -2.03338E+01 -2.04495E+01 -2.07495E+01 -2.06318E+01 -2.08684E+01 -2.10867E+01
  -2.13780E+01 -2.15132E+01 -2.15672E+01 -2.16861E+01 -2.17847E+01 -2.19068E+01 -2.19097E+01 -2.19709E+01 -2.17780E+01 -2.19939E+01
  -2.20666E+01 -2.22147E+01 -2.22523E+01 -2.22129E+01 -2.21357E+01 -2.20158E+01 -2.18762E+01 -2.17405E+01 -2.15788E+01 -2.11702E+01
  -2.09376E+01 -2.03640E+01 -2.00147E+01 -1.92986E+01 -1.89787E+01 -1.84968E+01 -1.81319E+01 -1.76740E+01 -1.74444E+01 -1.70347E+01
  -1.68540E+01 -1.64451E+01 -1.62186E+01 -1.57024E+01 -1.51810E+01 -1.46910E+01 -1.42150E+01 -1.36009E+01 -1.28997E+01 -1.19752E+01
  -1.08722E+01 -9.44609E+00 -8.13122E+00 -8.59270E+00 -8.03617E+00 -8.60715E+00 -7.77198E+00 -5.93521E+00 -4.16443E+00 -3.54306E+00
  -2.47993E+00 -2.90032E+00 -2.50394E+00 -3.07603E+00 -3.09594E+00 -3.21789E+00 -3.30445E+00 -2.51494E+00 -2.50192E+00 -1.61230E+00
  -1.70318E+00 -1.36671E+00 -1.93162E+00 -1.93599E+00 -2.59526E+00 -1.27204E+00 -1.23017E+00  5.91952E-01  1.11897E+00  2.59718E+00
   3.02477E+00  2.58452E+00  2.14288E+00  1.12520E+00  6.70642E-01  1.57960E+00  2.35485E+00  3.27744E+00  4.42364E+00  5.27447E+00
   5.97135E+00  6.69975E-01 -1.74760E+00 -2.55036E+00 -2.67360E+00 -2.42430E+00 -1.91310E+00 -1.23662E+00 -4.40491E-01  4.24329E-01
   1.33431E+00  2.22588E+00  3.07664E+00  3.85240E+00  4.53089E+00  5.09652E+00  5.52907E+00  5.82893E+00  6.00125E+00  6.06017E+00
   6.00320E+00  5.86339E+00  5.64614E+00  5.38358E+00  5.08982E+00  4.79092E+00  4.49581E+00  4.23770E+00  4.02319E+00  3.87210E+00
   3.78474E+00  3.77631E+00  3.84156E+00  3.98128E+00  4.18976E+00  4.45864E+00  4.77584E+00  5.12992E+00  5.50608E+00  5.89102E+00
   6.26911E+00  6.62743E+00  6.95189E+00  7.23196E+00  7.45615E+00  7.61613E+00  7.70057E+00  7.69127E+00  7.49630E+00  6.91520E+00
   6.60555E+00  6.04371E+00  5.85716E+00  5.72130E+00  5.48650E+00  5.08918E+00  4.97085E+00  4.11576E+00  3.88582E+00  2.91500E+00
   2.60760E+00  2.27444E+00  2.46847E+00  2.43189E+00  2.74470E+00  2.55841E+00  2.72661E+00  2.38042E+00  2.41251E+00  2.14455E+00
   2.17870E+00  2.49615E+00  2.64988E+00  3.18774E+00  3.32255E+00  3.72593E+00  3.62043E+00  3.55062E+00  3.15990E+00  3.34576E+00
   3.14917E+00  4.02804E+00  4.02744E+00  4.91330E+00  5.01564E+00  5.45339E+00  5.03231E+00  3.95616E+00  3.37384E+00  3.82858E+00
   3.75865E+00  4.34017E+00  4.47440E+00  5.32446E+00  6.03750E+00  5.63331E+00  5.20688E+00  4.84325E+00  4.51761E+00  4.22086E+00
   3.94916E+00  3.70392E+00  3.48617E+00  3.29965E+00  3.14641E+00  3.03033E+00  2.95276E+00  2.91630E+00  2.92080E+00  2.96725E+00
   3.05384E+00  3.17976E+00  3.34128E+00  3.53562E+00  3.75730E+00  4.00211E+00  4.26343E+00  4.53611E+00  4.81287E+00  5.08824E+00
   5.35512E+00  5.60868E+00  5.84276E+00  6.05368E+00  6.23668E+00  6.38969E+00  6.50974E+00  6.59661E+00  6.64913E+00  6.66871E+00
   6.65565E+00  6.61270E+00  6.54130E+00  6.44513E+00  6.32627E+00  6.18870E+00  6.03465E+00  5.86812E+00  5.69121E+00  5.50760E+00
   5.31896E+00  5.12843E+00  4.93715E+00  4.74777E+00  4.56093E+00  4.37875E+00  4.20137E+00  4.03040E+00  3.86564E+00  3.70838E+00
   3.55813E+00  3.41591E+00  3.28097E+00  3.15415E+00  3.03459E+00  2.92306E+00  2.81861E+00  2.72187E+00  2.63184E+00  2.54914E+00
   2.47278E+00  2.40337E+00  2.33989E+00  2.28294E+00  2.23149E+00  2.18615E+00  2.14596E+00  2.11153E+00  2.08187E+00  2.05760E+00
   2.03774E+00  2.02296E+00  2.01232E+00  2.00647E+00  2.00447E+00  2.00695E+00  2.01304E+00  2.02338E+00  2.03712E+00  2.05490E+00
   2.07584E+00  2.10060E+00  2.12834E+00  2.15974E+00  2.19398E+00  2.23169E+00  2.27206E+00  2.31574E+00  2.36197E+00  2.41140E+00
   2.46324E+00  2.51814E+00  2.57533E+00  2.63547E+00  2.69782E+00  2.76304E+00  2.83036E+00  2.90044E+00  2.97253E+00  3.04733E+00
   3.12409E+00  3.20348E+00  3.28477E+00  3.36862E+00  3.45432E+00  3.54255E+00  3.63262E+00  3.72519E+00  3.81957E+00  3.91643E+00
   4.01514E+00  4.11637E+00  4.21950E+00  4.32522E+00  4.43295E+00  4.54343E+00  4.65617E+00  4.77202E+00
 NY background values follow
     1.902E+00    1.909E+00    1.915E+00    1.920E+00    1.925E+00    1.929E+00    1.933E+00    1.937E+00    1.940E+00    1.942E+00
     1.944E+00    1.945E+00    1.946E+00    1.946E+00    1.946E+00    1.945E+00    1.943E+00    1.941E+00    1.939E+00    1.936E+00
     1.932E+00    1.928E+00    1.923E+00    1.917E+00    1.911E+00    1.904E+00    1.897E+00    1.889E+00    1.881E+00    1.871E+00
     1.862E+00    1.851E+00    1.840E+00    1.828E+00    1.816E+00    1.803E+00    1.789E+00    1.775E+00    1.760E+00    1.744E+00
     1.728E+00    1.711E+00    1.693E+00    1.675E+00    1.656E+00    1.636E+00    1.616E+00    1.594E+00    1.573E+00    1.550E+00
     1.527E+00    1.503E+00    1.478E+00    1.452E+00    1.426E+00    1.399E+00    1.372E+00    1.343E+00    1.314E+00    1.284E+00
     1.254E+00    1.222E+00    1.190E+00    1.157E+00    1.123E+00    1.089E+00    1.054E+00    1.018E+00    9.810E-01    9.435E-01
     9.052E-01    8.661E-01    8.262E-01    7.855E-01    7.440E-01    7.017E-01    6.586E-01    6.148E-01    5.701E-01    5.246E-01
     4.783E-01    4.312E-01    3.833E-01    3.346E-01    2.850E-01    2.347E-01    1.835E-01    1.315E-01    7.869E-02    2.505E-02
    -2.942E-02   -8.471E-02   -1.408E-01   -1.978E-01   -2.556E-01   -3.142E-01   -3.737E-01   -4.339E-01   -4.951E-01   -5.570E-01
    -6.198E-01   -6.835E-01   -7.480E-01   -8.133E-01   -8.794E-01   -9.464E-01   -1.014E+00   -1.083E+00   -1.153E+00   -1.223E+00
    -1.294E+00   -1.366E+00   -1.439E+00   -1.513E+00   -1.587E+00   -1.663E+00   -1.739E+00   -1.816E+00   -1.894E+00   -1.973E+00
    -2.053E+00   -2.133E+00   -2.215E+00   -2.297E+00   -2.380E+00   -2.464E+00   -2.548E+00   -2.634E+00   -2.720E+00   -2.807E+00
    -2.895E+00   -2.984E+00   -3.074E+00   -3.164E+00   -3.256E+00   -3.348E+00   -3.441E+00   -3.535E+00   -3.629E+00   -3.725E+00
    -3.821E+00   -3.918E+00   -4.016E+00   -4.115E+00   -4.214E+00   -4.314E+00   -4.415E+00   -4.517E+00   -4.620E+00   -4.723E+00
    -4.828E+00   -4.933E+00   -5.038E+00   -5.145E+00   -5.252E+00   -5.361E+00   -5.469E+00   -5.579E+00   -5.690E+00   -5.801E+00
    -5.913E+00   -6.025E+00   -6.139E+00   -6.253E+00   -6.368E+00   -6.484E+00   -6.600E+00   -6.717E+00   -6.835E+00   -6.953E+00
    -7.072E+00   -7.192E+00   -7.312E+00   -7.433E+00   -7.555E+00   -7.677E+00   -7.800E+00   -7.923E+00   -8.046E+00   -8.170E+00
    -8.295E+00   -8.420E+00   -8.545E+00   -8.671E+00   -8.797E+00   -8.923E+00   -9.050E+00   -9.177E+00   -9.304E+00   -9.431E+00
    -9.559E+00   -9.687E+00   -9.815E+00   -9.944E+00   -1.007E+01   -1.020E+01   -1.033E+01   -1.046E+01   -1.059E+01   -1.072E+01
    -1.084E+01   -1.097E+01   -1.110E+01   -1.123E+01   -1.136E+01   -1.149E+01   -1.162E+01   -1.175E+01   -1.188E+01   -1.200E+01
    -1.213E+01   -1.226E+01   -1.239E+01   -1.251E+01   -1.264E+01   -1.277E+01   -1.290E+01   -1.302E+01   -1.315E+01   -1.327E+01
    -1.340E+01   -1.352E+01   -1.365E+01   -1.377E+01   -1.390E+01   -1.402E+01   -1.414E+01   -1.427E+01   -1.439E+01   -1.451E+01
    -1.463E+01   -1.475E+01   -1.487E+01   -1.499E+01   -1.511E+01   -1.523E+01   -1.534E+01   -1.546E+01   -1.557E+01   -1.569E+01
    -1.580E+01   -1.592E+01   -1.603E+01   -1.614E+01   -1.625E+01   -1.637E+01   -1.648E+01   -1.658E+01   -1.669E+01   -1.680E+01
    -1.691E+01   -1.701E+01   -1.712E+01   -1.722E+01   -1.732E+01   -1.742E+01   -1.753E+01   -1.763E+01   -1.772E+01   -1.782E+01
    -1.792E+01   -1.802E+01   -1.811E+01   -1.820E+01   -1.830E+01   -1.839E+01   -1.848E+01   -1.857E+01   -1.866E+01   -1.874E+01
    -1.883E+01   -1.891E+01   -1.900E+01   -1.908E+01   -1.916E+01   -1.924E+01   -1.932E+01   -1.940E+01   -1.947E+01   -1.955E+01
    -1.962E+01   -1.969E+01   -1.976E+01   -1.983E+01   -1.990E+01   -1.997E+01   -2.004E+01   -2.010E+01   -2.016E+01   -2.022E+01
    -2.029E+01   -2.034E+01   -2.040E+01   -2.046E+01   -2.051E+01   -2.057E+01   -2.062E+01   -2.067E+01   -2.072E+01   -2.076E+01
    -2.081E+01   -2.085E+01   -2.090E+01   -2.094E+01   -2.098E+01   -2.102E+01   -2.105E+01   -2.109E+01   -2.112E+01   -2.116E+01
    -2.119E+01   -2.122E+01   -2.124E+01   -2.127E+01   -2.129E+01   -2.132E+01   -2.134E+01   -2.136E+01   -2.138E+01   -2.139E+01
    -2.141E+01   -2.142E+01   -2.143E+01   -2.144E+01   -2.145E+01   -2.146E+01   -2.147E+01   -2.147E+01   -2.147E+01   -2.147E+01
    -2.147E+01   -2.147E+01   -2.146E+01   -2.146E+01   -2.145E+01   -2.144E+01   -2.143E+01   -2.142E+01   -2.140E+01   -2.139E+01
    -2.137E+01   -2.135E+01   -2.133E+01   -2.131E+01   -2.129E+01   -2.126E+01   -2.123E+01   -2.121E+01   -2.118E+01   -2.115E+01
    -2.111E+01   -2.108E+01   -2.104E+01   -2.101E+01   -2.097E+01   -2.093E+01   -2.089E+01   -2.085E+01   -2.080E+01   -2.076E+01
    -2.071E+01   -2.066E+01   -2.061E+01   -2.056E+01   -2.051E+01   -2.046E+01   -2.040E+01   -2.035E+01   -2.029E+01   -2.023E+01
    -2.017E+01   -2.011E+01   -2.005E+01   -1.998E+01   -1.992E+01   -1.985E+01   -1.979E+01   -1.972E+01   -1.965E+01   -1.958E+01
    -1.950E+01   -1.943E+01   -1.935E+01   -1.928E+01   -1.920E+01   -1.912E+01   -1.904E+01   -1.896E+01   -1.888E+01   -1.880E+01
    -1.871E+01   -1.863E+01   -1.854E+01   -1.845E+01   -1.836E+01   -1.827E+01   -1.818E+01   -1.809E+01   -1.800E+01   -1.790E+01
    -1.781E+01   -1.771E+01   -1.762E+01   -1.752E+01   -1.742E+01   -1.732E+01   -1.721E+01   -1.711E+01   -1.701E+01   -1.690E+01
    -1.680E+01   -1.669E+01   -1.658E+01   -1.647E+01   -1.636E+01   -1.625E+01   -1.614E+01   -1.603E+01   -1.592E+01   -1.580E+01
    -1.569E+01   -1.557E+01   -1.545E+01   -1.533E+01   -1.521E+01   -1.509E+01   -1.497E+01   -1.485E+01   -1.473E+01   -1.460E+01
    -1.448E+01   -1.435E+01   -1.422E+01   -1.410E+01   -1.397E+01   -1.384E+01   -1.371E+01   -1.358E+01   -1.344E+01   -1.331E+01
    -1.318E+01   -1.304E+01   -1.291E+01   -1.277E+01   -1.263E+01   -1.249E+01   -1.235E+01   -1.221E+01   -1.207E+01   -1.193E+01
    -1.179E+01   -1.164E+01   -1.150E+01   -1.135E+01   -1.121E+01   -1.106E+01   -1.091E+01   -1.076E+01   -1.062E+01   -1.047E+01
    -1.031E+01   -1.016E+01   -1.001E+01   -9.856E+00   -9.701E+00   -9.546E+00   -9.390E+00   -9.233E+00   -9.075E+00   -8.917E+00
    -8.757E+00   -8.597E+00   -8.436E+00   -8.274E+00   -8.112E+00   -7.948E+00   -7.784E+00   -7.619E+00   -7.453E+00   -7.286E+00
    -7.119E+00   -6.951E+00   -6.782E+00   -6.612E+00   -6.441E+00   -6.269E+00   -6.097E+00   -5.924E+00   -5.750E+00   -5.575E+00
    -5.399E+00   -5.223E+00   -5.046E+00   -4.867E+00   -4.689E+00   -4.509E+00   -4.328E+00   -4.147E+00
 Asp      Conc. = 1.35E+01
