 LCModel (Version 6.3-1L) Copyright: S.W. Provencher.          Ref.: Magn. Reson. Med. 30:672-679 (1993).                
 Slice#2 Row#12 Col#7  K_02_press_1_raw_act
 36 lines in following concentration table = NCONC+1
    Conc.  %SD /Cr+PCr  Metabolite                                         
    0.000 999%   0.000 Ala                                                 
    0.000 999%   0.000 Asp                                                 
  829.006  38%   0.360 Cr                                                  
 1.48E+03  22%   0.640 PCr                                                 
    0.000 999%   0.000 GABA                                                
    0.000 999%   0.000 Glc                                                 
 1.04E+03  34%   0.451 Gln                                                 
 1.52E+03  26%   0.659 Glu                                                 
  615.155   5%   0.267 GPC                                                 
    0.000 999%   0.000 PCh                                                 
  766.167  11%   0.332 GSH                                                 
 2.49E+03  15%   1.080 Ins                                                 
   67.358 259% 2.9E-02 Lac                                                 
 3.47E+03   6%   1.503 NAA                                                 
   41.606 510% 1.8E-02 NAAG                                                
  175.217  21% 7.6E-02 Scyllo                                              
    0.000 999%   0.000 Tau                                                 
    0.000 999%   0.000 -CrCH2                                              
  615.155   5%   0.267 GPC+PCh                                             
 3.51E+03   3%   1.521 NAA+NAAG                                            
 2.31E+03   3%   1.000 Cr+PCr                                              
 2.56E+03  25%   1.111 Glu+Gln                                             
 1.34E+03  46%   0.581 Lip13a                                              
    0.000 999%   0.000 Lip13b                                              
  144.738 177% 6.3E-02 Lip09                                               
 1.65E+03  19%   0.715 MM09                                                
  257.689  63%   0.112 Lip20                                               
 3.37E+03  14%   1.463 MM20                                                
  515.256  36%   0.223 MM12                                                
 1.70E+03  25%   0.737 MM14                                                
  698.109  37%   0.303 MM17                                                
 1.34E+03  46%   0.581 Lip13a+Lip13b                                       
 3.56E+03  17%   1.542 MM14+Lip13a+Lip13b+MM12                             
 1.79E+03  15%   0.778 MM09+Lip09                                          
 3.63E+03  13%   1.574 MM20+Lip20                                          
   6 lines in following misc. output table
  FWHM = 0.069 ppm    S/N =  16                                            
  Data shift = 0.000 ppm                                                   
  Ph: -46 deg     -11.7 deg/ppm                                            
  alphaB,S = 5.7E-01,   9.2E+01                                            
   14 spline knots.   Ns = 9(1)                                            
  (15) 7 infls.   (11) 1 extrs.                                            
  498 points on ppm-axis = NY
      4.000000     3.992357     3.984714     3.977070     3.969427     3.961784     3.954141     3.946497     3.938854     3.931211
      3.923568     3.915925     3.908281     3.900638     3.892995     3.885352     3.877708     3.870065     3.862422     3.854779
      3.847136     3.839492     3.831849     3.824206     3.816563     3.808919     3.801276     3.793633     3.785990     3.778347
      3.770703     3.763060     3.755417     3.747774     3.740130     3.732487     3.724844     3.717201     3.709558     3.701914
      3.694271     3.686628     3.678985     3.671341     3.663698     3.656055     3.648412     3.640769     3.633125     3.625482
      3.617839     3.610196     3.602552     3.594909     3.587266     3.579623     3.571980     3.564336     3.556693     3.549050
      3.541407     3.533763     3.526120     3.518477     3.510834     3.503191     3.495547     3.487904     3.480261     3.472618
      3.464974     3.457331     3.449688     3.442045     3.434402     3.426758     3.419115     3.411472     3.403829     3.396185
      3.388542     3.380899     3.373256     3.365613     3.357969     3.350326     3.342683     3.335040     3.327396     3.319753
      3.312110     3.304467     3.296824     3.289180     3.281537     3.273894     3.266251     3.258607     3.250964     3.243321
      3.235678     3.228034     3.220391     3.212748     3.205105     3.197462     3.189818     3.182175     3.174532     3.166889
      3.159245     3.151602     3.143959     3.136316     3.128673     3.121029     3.113386     3.105743     3.098100     3.090456
      3.082813     3.075170     3.067527     3.059884     3.052240     3.044597     3.036954     3.029311     3.021667     3.014024
      3.006381     2.998738     2.991095     2.983451     2.975808     2.968165     2.960522     2.952878     2.945235     2.937592
      2.929949     2.922306     2.914662     2.907019     2.899376     2.891733     2.884089     2.876446     2.868803     2.861160
      2.853517     2.845873     2.838230     2.830587     2.822944     2.815300     2.807657     2.800014     2.792371     2.784728
      2.777084     2.769441     2.761798     2.754155     2.746511     2.738868     2.731225     2.723582     2.715939     2.708295
      2.700652     2.693009     2.685366     2.677722     2.670079     2.662436     2.654793     2.647150     2.639506     2.631863
      2.624220     2.616577     2.608933     2.601290     2.593647     2.586004     2.578361     2.570717     2.563074     2.555431
      2.547788     2.540144     2.532501     2.524858     2.517215     2.509572     2.501928     2.494285     2.486642     2.478999
      2.471355     2.463712     2.456069     2.448426     2.440783     2.433139     2.425496     2.417853     2.410210     2.402566
      2.394923     2.387280     2.379637     2.371994     2.364350     2.356707     2.349064     2.341421     2.333777     2.326134
      2.318491     2.310848     2.303205     2.295561     2.287918     2.280275     2.272632     2.264988     2.257345     2.249702
      2.242059     2.234416     2.226772     2.219129     2.211486     2.203843     2.196199     2.188556     2.180913     2.173270
      2.165627     2.157983     2.150340     2.142697     2.135054     2.127410     2.119767     2.112124     2.104481     2.096838
      2.089194     2.081551     2.073908     2.066265     2.058621     2.050978     2.043335     2.035692     2.028049     2.020405
      2.012762     2.005119     1.997476     1.989833     1.982190     1.974546     1.966903     1.959260     1.951617     1.943974
      1.936331     1.928688     1.921045     1.913402     1.905759     1.898115     1.890472     1.882829     1.875186     1.867543
      1.859900     1.852257     1.844614     1.836971     1.829327     1.821684     1.814041     1.806398     1.798755     1.791112
      1.783469     1.775826     1.768183     1.760540     1.752896     1.745253     1.737610     1.729967     1.722324     1.714681
      1.707038     1.699395     1.691752     1.684108     1.676465     1.668822     1.661179     1.653536     1.645893     1.638250
      1.630607     1.622964     1.615321     1.607677     1.600034     1.592391     1.584748     1.577105     1.569462     1.561819
      1.554176     1.546533     1.538890     1.531246     1.523603     1.515960     1.508317     1.500674     1.493031     1.485388
      1.477745     1.470102     1.462458     1.454815     1.447172     1.439529     1.431886     1.424243     1.416600     1.408957
      1.401314     1.393671     1.386027     1.378384     1.370741     1.363098     1.355455     1.347812     1.340169     1.332526
      1.324883     1.317240     1.309596     1.301953     1.294310     1.286667     1.279024     1.271381     1.263738     1.256095
      1.248452     1.240808     1.233165     1.225522     1.217879     1.210236     1.202593     1.194950     1.187307     1.179664
      1.172021     1.164377     1.156734     1.149091     1.141448     1.133805     1.126162     1.118519     1.110876     1.103233
      1.095590     1.087946     1.080303     1.072660     1.065017     1.057374     1.049731     1.042088     1.034445     1.026802
      1.019158     1.011515     1.003872     0.996229     0.988586     0.980943     0.973300     0.965657     0.958014     0.950371
      0.942727     0.935084     0.927441     0.919798     0.912155     0.904512     0.896869     0.889226     0.881583     0.873940
      0.866296     0.858653     0.851010     0.843367     0.835724     0.828081     0.820438     0.812795     0.805152     0.797508
      0.789865     0.782222     0.774579     0.766936     0.759293     0.751650     0.744007     0.736364     0.728721     0.721077
      0.713434     0.705791     0.698148     0.690505     0.682862     0.675219     0.667576     0.659933     0.652290     0.644646
      0.637003     0.629360     0.621717     0.614074     0.606431     0.598788     0.591145     0.583502     0.575858     0.568215
      0.560572     0.552929     0.545286     0.537643     0.530000     0.522357     0.514714     0.507071     0.499427     0.491784
      0.484141     0.476498     0.468855     0.461212     0.453569     0.445925     0.438282     0.430639     0.422996     0.415353
      0.407710     0.400067     0.392424     0.384780     0.377137     0.369494     0.361851     0.354208     0.346565     0.338922
      0.331278     0.323635     0.315992     0.308349     0.300706     0.293063     0.285420     0.277777     0.270133     0.262490
      0.254847     0.247204     0.239561     0.231918     0.224275     0.216631     0.208988     0.201345
 NY phased data points follow
  -7.90449E+01 -7.91801E+01 -7.26723E+01 -7.21833E+01 -6.48832E+01 -6.04262E+01 -5.18685E+01 -4.60484E+01 -4.16558E+01 -3.52819E+01
  -3.28151E+01 -3.17220E+01 -3.33927E+01 -3.92273E+01 -4.68742E+01 -4.80512E+01 -5.15679E+01 -5.52538E+01 -6.01082E+01 -6.29739E+01
  -6.48471E+01 -6.71407E+01 -6.30461E+01 -6.27320E+01 -6.20510E+01 -5.67302E+01 -5.82114E+01 -5.28102E+01 -5.17378E+01 -4.87857E+01
  -4.89250E+01 -4.41960E+01 -4.68645E+01 -4.33947E+01 -4.70932E+01 -4.84622E+01 -4.52520E+01 -4.50239E+01 -4.70456E+01 -4.67381E+01
  -4.50308E+01 -4.32797E+01 -4.30739E+01 -4.18111E+01 -4.21634E+01 -3.82748E+01 -3.98551E+01 -3.51036E+01 -3.57624E+01 -3.58317E+01
  -3.50866E+01 -4.13317E+01 -4.19048E+01 -3.96152E+01 -4.34035E+01 -4.01983E+01 -3.97930E+01 -3.92075E+01 -4.11860E+01 -3.89149E+01
  -3.90906E+01 -4.23156E+01 -4.20614E+01 -4.27053E+01 -4.29173E+01 -4.29857E+01 -4.01119E+01 -4.17298E+01 -4.42125E+01 -4.52309E+01
  -4.52106E+01 -4.27572E+01 -3.92868E+01 -3.87356E+01 -4.13903E+01 -4.42262E+01 -3.82557E+01 -3.81626E+01 -3.96813E+01 -3.87179E+01
  -3.70782E+01 -3.74783E+01 -3.74122E+01 -3.32114E+01 -3.81864E+01 -3.54069E+01 -3.27543E+01 -3.41134E+01 -3.40869E+01 -2.97280E+01
  -3.01739E+01 -3.23759E+01 -2.49076E+01 -2.69645E+01 -2.36700E+01 -2.28897E+01 -1.55655E+01 -1.93450E+01 -1.21583E+01 -1.21072E+01
  -5.27055E+00  4.17994E-01  6.04694E+00  6.50930E+00  5.24312E+00  4.03790E+00  2.28763E+00 -6.36677E+00 -8.42712E+00 -1.14560E+01
  -1.49779E+01 -1.36881E+01 -1.73735E+01 -1.73664E+01 -2.26086E+01 -1.99443E+01 -1.97827E+01 -1.86635E+01 -1.87829E+01 -1.46370E+01
  -1.36144E+01 -8.19611E+00 -3.46543E+00  7.96579E+00  1.00367E+01  2.54890E+01  2.87027E+01  3.33325E+01  3.62104E+01  2.83192E+01
   2.39302E+01  1.42106E+01  5.60133E+00  2.55094E+00 -4.73078E+00 -1.08668E+01 -1.19860E+01 -1.53864E+01 -2.04973E+01 -1.93174E+01
  -2.06651E+01 -2.03507E+01 -2.24816E+01 -2.08826E+01 -2.21894E+01 -1.90947E+01 -2.38976E+01 -2.01353E+01 -2.41400E+01 -1.70798E+01
  -2.45368E+01 -2.10054E+01 -1.94372E+01 -2.05864E+01 -2.40613E+01 -2.11315E+01 -2.01160E+01 -2.09280E+01 -1.60117E+01 -1.78858E+01
  -2.09215E+01 -2.23042E+01 -2.31821E+01 -2.11316E+01 -2.28644E+01 -2.27725E+01 -2.09591E+01 -2.56194E+01 -2.09184E+01 -2.69494E+01
  -2.50449E+01 -2.67469E+01 -3.08485E+01 -3.17296E+01 -3.08056E+01 -3.21837E+01 -3.19902E+01 -3.24190E+01 -3.07190E+01 -3.10468E+01
  -2.76908E+01 -2.70885E+01 -2.70241E+01 -2.89649E+01 -2.90945E+01 -2.55399E+01 -2.70992E+01 -2.39267E+01 -2.25655E+01 -1.90407E+01
  -2.08339E+01 -1.82069E+01 -1.50801E+01 -1.61960E+01 -1.32169E+01 -1.02662E+01 -1.43548E+01 -1.23621E+01 -1.42595E+01 -1.37870E+01
  -1.87628E+01 -8.04381E+00 -1.43069E+01 -1.11494E+01 -1.20692E+01 -9.23311E+00 -1.34503E+01 -1.32710E+01 -1.27878E+01 -1.32501E+01
  -1.53974E+01 -1.03299E+01 -8.89357E+00 -6.95798E+00 -4.65302E+00 -3.48812E+00 -4.02226E+00 -5.28010E+00 -2.31350E+00 -6.67065E+00
  -1.07888E+01 -1.20416E+01 -1.10335E+01 -8.15753E+00 -4.22244E+00 -3.02504E+00 -2.64929E-01 -8.98162E-01  6.41709E+00 -1.21025E+00
  -2.24701E+00 -2.69929E+00 -7.33361E-01 -4.51856E+00 -1.32526E+00 -1.03253E+00 -5.96608E+00 -3.13673E+00 -3.03670E+00  5.97763E-01
  -6.17965E+00 -4.92693E+00 -3.01878E+00  3.64880E+00  3.50044E+00  4.47517E+00  2.79583E+00  7.46567E+00  6.55732E+00  9.16180E+00
   1.50855E+01  1.59426E+01  1.84541E+01  2.49745E+01  3.38220E+01  4.10141E+01  5.58231E+01  6.58683E+01  7.54468E+01  8.58667E+01
   8.89141E+01  9.20384E+01  8.35785E+01  7.43030E+01  5.40689E+01  4.69880E+01  3.82565E+01  3.27549E+01  2.24784E+01  1.88370E+01
   1.25064E+01  8.53337E+00  7.36552E+00  5.05767E+00  1.26692E-01  4.27721E+00  2.36934E+00  6.34015E-01 -2.50968E+00 -1.61458E-01
  -3.84577E+00 -2.51504E-01 -1.81705E+00 -4.41835E+00 -1.17374E+00  5.20515E-02 -2.87179E+00 -5.70051E+00 -6.59019E+00 -2.88617E+00
  -6.60089E+00 -4.28463E+00 -1.43493E-01 -3.52513E-01 -3.41753E+00 -6.64570E-01 -4.22813E+00 -9.28302E-01 -3.63774E+00 -3.53209E+00
   2.15211E+00 -3.67691E-01  4.44811E+00  7.94026E-01  2.26749E+00 -4.26097E-01  1.89280E+00  7.13004E-01  2.58270E+00 -4.24374E-01
   2.08135E+00  3.16030E-01  6.78962E-01 -2.52634E+00  1.44218E+00  5.78278E+00  1.92085E+00  4.37093E+00 -1.97261E+00 -2.35499E+00
   3.30239E-01  3.11589E-01 -5.61797E-01  1.12419E+00 -4.08886E+00 -1.14381E+00  1.45556E+00  1.95055E+00  2.87570E+00  2.43299E+00
   2.07998E+00  8.23286E+00  3.00746E+00  7.34292E+00  9.42115E+00  7.14781E+00  4.04030E+00  6.12536E+00  8.30828E+00  6.87276E+00
   8.62482E+00  8.44412E+00  9.34366E+00  1.10214E+01  8.81827E+00  9.38316E+00  7.96953E+00  8.61515E+00  1.41958E+01  1.04082E+01
   7.70202E+00  8.64607E+00  8.23136E+00  6.53425E+00  7.28892E+00  7.40393E+00  7.51233E+00  6.96275E+00  7.37103E+00  5.15748E+00
   1.00231E+01  3.27103E+00  7.75185E+00  4.79647E+00  3.55811E+00  4.85960E+00  7.14854E+00  3.36465E+00  3.75588E+00  3.62524E+00
   3.40601E+00  1.21596E+00  6.80001E+00  2.19334E+00  3.53116E+00  3.60750E-01  2.63437E+00  1.20643E+00 -5.09414E-02  8.64624E-01
  -2.88983E-01  1.99242E+00 -1.36926E+00  4.23428E+00  1.28486E+00  2.33392E+00 -1.89628E+00  1.88705E+00 -5.26813E-02  8.90020E-01
   2.02468E+00  2.62911E+00  4.69428E+00  3.45538E+00  2.08598E+00  1.94715E+00  4.64297E+00  4.67994E+00  6.87250E+00  9.96672E+00
   5.42595E+00  1.14791E+01  8.01019E+00  5.80454E+00  6.06827E+00  9.86617E+00  9.27637E+00  1.46660E+01  1.16422E+01  1.40439E+01
   1.03496E+01  6.82535E+00  1.13054E+01  1.14880E+01  1.44611E+01  1.10973E+01  1.13790E+01  8.25695E+00  1.15652E+01  5.88299E+00
   7.78071E+00  8.97932E+00  6.53006E+00  2.11219E+00  3.12759E+00  3.58430E+00  5.33504E+00  2.52658E+00  5.81527E+00  2.38078E+00
   5.68990E+00  2.74981E+00  1.13713E+00 -5.33736E-01  1.19792E+00  2.86305E+00  2.55876E+00 -1.38526E-01  4.66671E+00  2.33877E+00
   1.81633E+00  2.40538E+00  1.18892E+00  4.90201E+00  3.22504E+00  3.35277E+00  3.16078E+00  5.24767E+00  1.41162E+00  2.30826E+00
   2.72631E+00  1.40342E+00  4.08433E+00  2.91845E+00  3.20982E+00  2.02851E+00  4.07996E+00  1.15822E+00  3.60208E-01  2.56347E+00
   5.75844E+00  3.17199E+00  3.42127E+00 -1.90332E+00  2.69768E+00  3.83978E+00  2.48591E+00  2.59714E+00  6.23551E+00  7.49506E+00
   2.77626E+00  2.25531E+00  4.62403E+00  6.54471E+00  3.72094E+00  3.64309E+00  2.81101E+00  7.13806E+00  4.91589E+00  6.06278E+00
   4.81482E+00  5.58287E+00  2.88344E+00  5.69245E+00  3.22992E+00  4.62866E+00  5.54038E+00  1.84732E+00  2.57142E+00  4.23938E+00
   4.62786E+00  4.16878E+00  5.96584E+00  2.20644E+00  1.55133E+00  4.60432E+00  6.00658E+00  3.39083E+00
 NY points of the fit to the data follow
  -7.60072E+01 -7.35916E+01 -7.09726E+01 -6.80820E+01 -6.42263E+01 -5.93012E+01 -5.35034E+01 -4.73747E+01 -4.15915E+01 -3.69359E+01
  -3.41208E+01 -3.37830E+01 -3.62164E+01 -4.06842E+01 -4.53628E+01 -4.89415E+01 -5.16550E+01 -5.40071E+01 -5.61354E+01 -5.87133E+01
  -6.15277E+01 -6.27916E+01 -6.22361E+01 -6.13288E+01 -6.04004E+01 -5.90561E+01 -5.71355E+01 -5.47177E+01 -5.18258E+01 -4.87053E+01
  -4.58468E+01 -4.36430E+01 -4.27767E+01 -4.35739E+01 -4.55364E+01 -4.76314E+01 -4.91584E+01 -4.97676E+01 -4.93955E+01 -4.86918E+01
  -4.83003E+01 -4.78689E+01 -4.63812E+01 -4.42645E+01 -4.20888E+01 -4.00588E+01 -3.84995E+01 -3.77687E+01 -3.80698E+01 -3.93898E+01
  -4.13048E+01 -4.28839E+01 -4.36601E+01 -4.39252E+01 -4.38499E+01 -4.35026E+01 -4.32659E+01 -4.31448E+01 -4.26590E+01 -4.18952E+01
  -4.13464E+01 -4.12258E+01 -4.13558E+01 -4.15565E+01 -4.16303E+01 -4.14603E+01 -4.09597E+01 -4.01753E+01 -3.94136E+01 -3.87957E+01
  -3.82505E+01 -3.78000E+01 -3.73707E+01 -3.70445E+01 -3.68694E+01 -3.67783E+01 -3.67091E+01 -3.67013E+01 -3.65172E+01 -3.60818E+01
  -3.57984E+01 -3.56635E+01 -3.53611E+01 -3.48201E+01 -3.41636E+01 -3.34700E+01 -3.27813E+01 -3.21428E+01 -3.16806E+01 -3.14502E+01
  -3.14976E+01 -3.16992E+01 -3.16611E+01 -3.07800E+01 -2.81832E+01 -2.52535E+01 -2.27364E+01 -1.98487E+01 -1.57338E+01 -1.02573E+01
  -4.26810E+00  1.57218E+00  6.36484E+00  9.25668E+00  9.53057E+00  6.66092E+00  1.16734E+00 -4.83238E+00 -9.46569E+00 -1.28527E+01
  -1.58259E+01 -1.83846E+01 -2.10015E+01 -2.43569E+01 -2.64757E+01 -2.69045E+01 -2.66138E+01 -2.51706E+01 -2.13698E+01 -1.67342E+01
  -1.26838E+01 -7.78721E+00 -1.09729E+00  6.92345E+00  1.53315E+01  2.33896E+01  2.99209E+01  3.37039E+01  3.38534E+01  2.97588E+01
   2.21296E+01  1.37019E+01  7.00726E+00  1.98353E+00 -2.61154E+00 -6.90936E+00 -1.13947E+01 -1.66588E+01 -2.01612E+01 -2.08743E+01
  -2.06088E+01 -2.01381E+01 -1.97433E+01 -1.95950E+01 -1.97634E+01 -2.00131E+01 -2.01717E+01 -2.03049E+01 -2.04057E+01 -2.05366E+01
  -2.07783E+01 -2.10735E+01 -2.15254E+01 -2.19266E+01 -2.21475E+01 -2.22642E+01 -2.23215E+01 -2.24693E+01 -2.27054E+01 -2.29342E+01
  -2.31093E+01 -2.32247E+01 -2.32659E+01 -2.32057E+01 -2.30963E+01 -2.30900E+01 -2.33731E+01 -2.39907E+01 -2.46851E+01 -2.51660E+01
  -2.54561E+01 -2.56727E+01 -2.60575E+01 -2.64602E+01 -2.67622E+01 -2.70007E+01 -2.70444E+01 -2.69673E+01 -2.68350E+01 -2.65463E+01
  -2.61905E+01 -2.59481E+01 -2.56828E+01 -2.51594E+01 -2.43714E+01 -2.34294E+01 -2.22980E+01 -2.10483E+01 -1.96911E+01 -1.83393E+01
  -1.70708E+01 -1.59277E+01 -1.52253E+01 -1.50316E+01 -1.50984E+01 -1.50854E+01 -1.48331E+01 -1.43176E+01 -1.37024E+01 -1.29338E+01
  -1.20910E+01 -1.13163E+01 -1.05346E+01 -1.01798E+01 -1.05379E+01 -1.13194E+01 -1.22327E+01 -1.31093E+01 -1.38359E+01 -1.41692E+01
  -1.39538E+01 -1.30755E+01 -1.17076E+01 -1.03262E+01 -9.26973E+00 -8.45771E+00 -7.94383E+00 -8.05419E+00 -8.84267E+00 -9.74286E+00
  -1.03048E+01 -1.05735E+01 -1.03468E+01 -9.56927E+00 -8.34645E+00 -6.90799E+00 -5.74949E+00 -4.81732E+00 -4.05332E+00 -3.36038E+00
  -2.80476E+00 -2.36880E+00 -1.73833E+00 -1.11666E+00 -5.88709E-01  9.14283E-02  8.23180E-01  1.37666E+00  1.71680E+00  1.77305E+00
   1.41966E+00  9.04488E-01  6.44087E-01  7.67848E-01  1.30620E+00  2.30362E+00  3.57345E+00  4.75927E+00  5.79489E+00  6.90722E+00
   8.91981E+00  1.42180E+01  2.17432E+01  2.79280E+01  3.44834E+01  4.33084E+01  5.40145E+01  6.51792E+01  7.58380E+01  8.46592E+01
   9.00172E+01  9.04941E+01  8.47516E+01  7.30734E+01  5.90397E+01  4.73192E+01  3.87193E+01  3.12903E+01  2.47730E+01  1.87674E+01
   1.11492E+01  4.69855E+00  2.39757E+00  1.46083E+00  8.57048E-01  4.27027E-01  3.83728E-02 -3.62343E-01 -7.30657E-01 -1.05732E+00
  -1.34730E+00 -1.59597E+00 -1.80574E+00 -1.99466E+00 -2.15895E+00 -2.28584E+00 -2.37609E+00 -2.42983E+00 -2.44813E+00 -2.42991E+00
  -2.36954E+00 -2.27269E+00 -2.14701E+00 -1.99176E+00 -1.80704E+00 -1.59525E+00 -1.36187E+00 -1.11122E+00 -8.47403E-01 -5.77890E-01
  -3.09382E-01 -4.81201E-02  1.97172E-01  4.19149E-01  6.11501E-01  7.69107E-01  8.88830E-01  9.68869E-01  1.00956E+00  1.01308E+00
   9.82919E-01  9.24976E-01  8.46305E-01  7.54587E-01  6.59196E-01  5.69520E-01  4.94862E-01  4.44240E-01  4.25508E-01  4.45342E-01
   5.09334E-01  6.21801E-01  7.85577E-01  1.00181E+00  1.26995E+00  1.58789E+00  1.95228E+00  2.35864E+00  2.80135E+00  3.27372E+00
   3.76821E+00  4.27689E+00  4.79178E+00  5.30509E+00  5.80947E+00  6.29838E+00  6.76721E+00  7.21619E+00  7.65195E+00  8.04009E+00
   8.35417E+00  8.62574E+00  8.85927E+00  9.03467E+00  9.13130E+00  9.14608E+00  9.11111E+00  9.01848E+00  8.84476E+00  8.61454E+00
   8.38076E+00  8.19670E+00  8.08386E+00  8.01512E+00  7.95015E+00  7.87542E+00  7.76811E+00  7.58888E+00  7.35178E+00  7.07623E+00
   6.76304E+00  6.43230E+00  6.08084E+00  5.71698E+00  5.34247E+00  4.92786E+00  4.50501E+00  4.10874E+00  3.73029E+00  3.36683E+00
   3.01928E+00  2.68971E+00  2.38047E+00  2.09388E+00  1.83199E+00  1.59664E+00  1.38956E+00  1.21233E+00  1.06638E+00  9.52931E-01
   8.73078E-01  8.27909E-01  8.18638E-01  8.46594E-01  9.13164E-01  1.01976E+00  1.16786E+00  1.35907E+00  1.59505E+00  1.87735E+00
   2.20716E+00  2.58517E+00  3.01144E+00  3.48520E+00  4.00465E+00  4.56660E+00  5.16627E+00  5.79715E+00  6.45106E+00  7.11817E+00
   7.78709E+00  8.44501E+00  9.07808E+00  9.67197E+00  1.02124E+01  1.06860E+01  1.10804E+01  1.13852E+01  1.15923E+01  1.16966E+01
   1.16961E+01  1.15918E+01  1.13884E+01  1.10929E+01  1.07151E+01  1.02670E+01  9.76202E+00  9.21421E+00  8.63787E+00  8.04681E+00
   7.45388E+00  6.87070E+00  6.30724E+00  5.77165E+00  5.27012E+00  4.80701E+00  4.38503E+00  4.00545E+00  3.66825E+00  3.37230E+00
   3.11565E+00  2.89579E+00  2.70991E+00  2.55505E+00  2.42819E+00  2.32630E+00  2.24645E+00  2.18598E+00  2.14250E+00  2.11389E+00
   2.09818E+00  2.09358E+00  2.09854E+00  2.11174E+00  2.13209E+00  2.15862E+00  2.19043E+00  2.22671E+00  2.26677E+00  2.31008E+00
   2.35619E+00  2.40466E+00  2.45506E+00  2.50699E+00  2.56024E+00  2.61463E+00  2.67003E+00  2.72625E+00  2.78311E+00  2.84045E+00
   2.89820E+00  2.95631E+00  3.01473E+00  3.07334E+00  3.13203E+00  3.19073E+00  3.24946E+00  3.30820E+00  3.36691E+00  3.42551E+00
   3.48394E+00  3.54219E+00  3.60030E+00  3.65828E+00  3.71608E+00  3.77363E+00  3.83091E+00  3.88797E+00  3.94485E+00  4.00153E+00
   4.05796E+00  4.11411E+00  4.17001E+00  4.22570E+00  4.28121E+00  4.33654E+00  4.39162E+00  4.44647E+00  4.50113E+00  4.55566E+00
   4.61008E+00  4.66435E+00  4.71848E+00  4.77247E+00  4.82643E+00  4.88039E+00  4.93437E+00  4.98837E+00
 NY background values follow
    -8.388E+01   -8.325E+01   -8.262E+01   -8.199E+01   -8.136E+01   -8.073E+01   -8.010E+01   -7.947E+01   -7.884E+01   -7.821E+01
    -7.758E+01   -7.696E+01   -7.633E+01   -7.571E+01   -7.508E+01   -7.446E+01   -7.384E+01   -7.322E+01   -7.261E+01   -7.199E+01
    -7.138E+01   -7.076E+01   -7.015E+01   -6.955E+01   -6.894E+01   -6.834E+01   -6.773E+01   -6.714E+01   -6.654E+01   -6.595E+01
    -6.536E+01   -6.477E+01   -6.418E+01   -6.360E+01   -6.302E+01   -6.245E+01   -6.188E+01   -6.131E+01   -6.075E+01   -6.019E+01
    -5.963E+01   -5.908E+01   -5.853E+01   -5.799E+01   -5.745E+01   -5.691E+01   -5.638E+01   -5.586E+01   -5.533E+01   -5.482E+01
    -5.430E+01   -5.380E+01   -5.329E+01   -5.279E+01   -5.230E+01   -5.181E+01   -5.132E+01   -5.084E+01   -5.036E+01   -4.989E+01
    -4.942E+01   -4.896E+01   -4.850E+01   -4.805E+01   -4.760E+01   -4.715E+01   -4.671E+01   -4.627E+01   -4.584E+01   -4.541E+01
    -4.498E+01   -4.456E+01   -4.415E+01   -4.374E+01   -4.333E+01   -4.293E+01   -4.253E+01   -4.213E+01   -4.174E+01   -4.136E+01
    -4.098E+01   -4.060E+01   -4.023E+01   -3.986E+01   -3.949E+01   -3.913E+01   -3.878E+01   -3.842E+01   -3.808E+01   -3.773E+01
    -3.739E+01   -3.706E+01   -3.673E+01   -3.640E+01   -3.607E+01   -3.576E+01   -3.544E+01   -3.513E+01   -3.482E+01   -3.452E+01
    -3.422E+01   -3.393E+01   -3.364E+01   -3.335E+01   -3.307E+01   -3.279E+01   -3.252E+01   -3.225E+01   -3.198E+01   -3.172E+01
    -3.146E+01   -3.121E+01   -3.096E+01   -3.071E+01   -3.047E+01   -3.023E+01   -3.000E+01   -2.977E+01   -2.954E+01   -2.932E+01
    -2.911E+01   -2.889E+01   -2.868E+01   -2.848E+01   -2.828E+01   -2.808E+01   -2.789E+01   -2.770E+01   -2.751E+01   -2.733E+01
    -2.715E+01   -2.698E+01   -2.681E+01   -2.665E+01   -2.649E+01   -2.633E+01   -2.618E+01   -2.603E+01   -2.588E+01   -2.574E+01
    -2.560E+01   -2.546E+01   -2.533E+01   -2.520E+01   -2.507E+01   -2.495E+01   -2.483E+01   -2.471E+01   -2.459E+01   -2.447E+01
    -2.435E+01   -2.424E+01   -2.413E+01   -2.401E+01   -2.390E+01   -2.379E+01   -2.368E+01   -2.357E+01   -2.346E+01   -2.335E+01
    -2.324E+01   -2.312E+01   -2.301E+01   -2.290E+01   -2.278E+01   -2.267E+01   -2.255E+01   -2.243E+01   -2.231E+01   -2.218E+01
    -2.206E+01   -2.193E+01   -2.180E+01   -2.167E+01   -2.153E+01   -2.139E+01   -2.125E+01   -2.110E+01   -2.095E+01   -2.080E+01
    -2.064E+01   -2.047E+01   -2.031E+01   -2.013E+01   -1.996E+01   -1.978E+01   -1.960E+01   -1.941E+01   -1.922E+01   -1.903E+01
    -1.883E+01   -1.863E+01   -1.843E+01   -1.823E+01   -1.802E+01   -1.782E+01   -1.761E+01   -1.740E+01   -1.718E+01   -1.697E+01
    -1.676E+01   -1.654E+01   -1.632E+01   -1.611E+01   -1.589E+01   -1.567E+01   -1.546E+01   -1.524E+01   -1.503E+01   -1.481E+01
    -1.460E+01   -1.438E+01   -1.417E+01   -1.396E+01   -1.375E+01   -1.355E+01   -1.334E+01   -1.314E+01   -1.294E+01   -1.274E+01
    -1.255E+01   -1.235E+01   -1.216E+01   -1.198E+01   -1.180E+01   -1.162E+01   -1.144E+01   -1.127E+01   -1.111E+01   -1.095E+01
    -1.079E+01   -1.063E+01   -1.048E+01   -1.033E+01   -1.019E+01   -1.005E+01   -9.915E+00   -9.782E+00   -9.652E+00   -9.526E+00
    -9.403E+00   -9.284E+00   -9.167E+00   -9.054E+00   -8.943E+00   -8.836E+00   -8.732E+00   -8.630E+00   -8.532E+00   -8.436E+00
    -8.343E+00   -8.252E+00   -8.164E+00   -8.078E+00   -7.995E+00   -7.915E+00   -7.836E+00   -7.760E+00   -7.687E+00   -7.615E+00
    -7.545E+00   -7.478E+00   -7.412E+00   -7.349E+00   -7.287E+00   -7.227E+00   -7.169E+00   -7.112E+00   -7.057E+00   -7.004E+00
    -6.952E+00   -6.902E+00   -6.853E+00   -6.805E+00   -6.759E+00   -6.714E+00   -6.670E+00   -6.627E+00   -6.586E+00   -6.545E+00
    -6.506E+00   -6.468E+00   -6.431E+00   -6.395E+00   -6.360E+00   -6.325E+00   -6.292E+00   -6.260E+00   -6.228E+00   -6.197E+00
    -6.167E+00   -6.138E+00   -6.110E+00   -6.082E+00   -6.055E+00   -6.028E+00   -6.002E+00   -5.976E+00   -5.951E+00   -5.927E+00
    -5.903E+00   -5.879E+00   -5.856E+00   -5.833E+00   -5.810E+00   -5.788E+00   -5.766E+00   -5.744E+00   -5.722E+00   -5.701E+00
    -5.679E+00   -5.658E+00   -5.636E+00   -5.615E+00   -5.593E+00   -5.572E+00   -5.550E+00   -5.528E+00   -5.507E+00   -5.485E+00
    -5.462E+00   -5.440E+00   -5.418E+00   -5.395E+00   -5.372E+00   -5.349E+00   -5.326E+00   -5.303E+00   -5.279E+00   -5.255E+00
    -5.231E+00   -5.207E+00   -5.183E+00   -5.158E+00   -5.134E+00   -5.109E+00   -5.084E+00   -5.058E+00   -5.033E+00   -5.007E+00
    -4.981E+00   -4.954E+00   -4.928E+00   -4.901E+00   -4.874E+00   -4.846E+00   -4.819E+00   -4.791E+00   -4.763E+00   -4.734E+00
    -4.706E+00   -4.677E+00   -4.647E+00   -4.618E+00   -4.588E+00   -4.558E+00   -4.527E+00   -4.497E+00   -4.465E+00   -4.434E+00
    -4.402E+00   -4.370E+00   -4.338E+00   -4.305E+00   -4.272E+00   -4.239E+00   -4.205E+00   -4.170E+00   -4.135E+00   -4.100E+00
    -4.064E+00   -4.028E+00   -3.991E+00   -3.953E+00   -3.915E+00   -3.876E+00   -3.836E+00   -3.796E+00   -3.755E+00   -3.713E+00
    -3.670E+00   -3.627E+00   -3.582E+00   -3.537E+00   -3.491E+00   -3.444E+00   -3.396E+00   -3.347E+00   -3.297E+00   -3.246E+00
    -3.194E+00   -3.141E+00   -3.087E+00   -3.031E+00   -2.975E+00   -2.917E+00   -2.858E+00   -2.798E+00   -2.737E+00   -2.674E+00
    -2.610E+00   -2.545E+00   -2.478E+00   -2.410E+00   -2.340E+00   -2.269E+00   -2.197E+00   -2.123E+00   -2.047E+00   -1.971E+00
    -1.892E+00   -1.813E+00   -1.732E+00   -1.650E+00   -1.566E+00   -1.482E+00   -1.397E+00   -1.310E+00   -1.223E+00   -1.135E+00
    -1.046E+00   -9.558E-01   -8.653E-01   -7.741E-01   -6.823E-01   -5.899E-01   -4.971E-01   -4.038E-01   -3.102E-01   -2.162E-01
    -1.220E-01   -2.758E-02    6.701E-02    1.617E-01    2.564E-01    3.512E-01    4.458E-01    5.403E-01    6.347E-01    7.288E-01
     8.226E-01    9.161E-01    1.009E+00    1.102E+00    1.194E+00    1.285E+00    1.376E+00    1.466E+00    1.556E+00    1.645E+00
     1.732E+00    1.819E+00    1.905E+00    1.990E+00    2.074E+00    2.157E+00    2.239E+00    2.320E+00    2.400E+00    2.480E+00
     2.558E+00    2.636E+00    2.712E+00    2.788E+00    2.863E+00    2.937E+00    3.010E+00    3.083E+00    3.154E+00    3.225E+00
     3.295E+00    3.365E+00    3.434E+00    3.502E+00    3.569E+00    3.636E+00    3.702E+00    3.767E+00    3.832E+00    3.896E+00
     3.960E+00    4.023E+00    4.085E+00    4.147E+00    4.209E+00    4.270E+00    4.330E+00    4.390E+00    4.449E+00    4.508E+00
     4.567E+00    4.625E+00    4.682E+00    4.740E+00    4.797E+00    4.853E+00    4.909E+00    4.965E+00
 Cr       Conc. = 8.29E+02
