 LCModel (Version 6.3-1L) Copyright: S.W. Provencher.          Ref.: Magn. Reson. Med. 30:672-679 (1993).                
 Slice#3 Row#2 Col#6  K_02_press_1_raw_act
 36 lines in following concentration table = NCONC+1
    Conc.  %SD /Cr+PCr  Metabolite                                         
    0.000 999%   0.000 Ala                                                 
  105.553 105%   0.176 Asp                                                 
    0.000 999%   0.000 Cr                                                  
  598.958   8%   1.000 PCr                                                 
   57.096 122% 9.5E-02 GABA                                                
   74.036  92%   0.124 Glc                                                 
  494.289  52%   0.825 Gln                                                 
  836.968  35%   1.397 Glu                                                 
  177.829  10%   0.297 GPC                                                 
    0.000 999%   0.000 PCh                                                 
  201.796  33%   0.337 GSH                                                 
  458.641  48%   0.766 Ins                                                 
    0.000 999%   0.000 Lac                                                 
  768.994   7%   1.284 NAA                                                 
    0.000 999%   0.000 NAAG                                                
   25.112  70% 4.2E-02 Scyllo                                              
   62.677 168%   0.105 Tau                                                 
    0.000 999%   0.000 -CrCH2                                              
  177.829  10%   0.297 GPC+PCh                                             
  768.994   7%   1.284 NAA+NAAG                                            
  598.958   8%   1.000 Cr+PCr                                              
 1.33E+03  33%   2.223 Glu+Gln                                             
 2.46E+03  37%   4.113 Lip13a                                              
  486.339 125%   0.812 Lip13b                                              
  373.918  64%   0.624 Lip09                                               
  707.561  30%   1.181 MM09                                                
  292.324  56%   0.488 Lip20                                               
  895.453  34%   1.495 MM20                                                
  221.529  46%   0.370 MM12                                                
 2.01E+03  15%   3.360+MM14                                                
  911.097  21%   1.521 MM17                                                
 2.95E+03  18%   4.925 Lip13a+Lip13b                                       
 5.18E+03   8%   8.655 MM14+Lip13a+Lip13b+MM12                             
 1.08E+03  15%   1.806 MM09+Lip09                                          
 1.19E+03  23%   1.983 MM20+Lip20                                          
   6 lines in following misc. output table
  FWHM = 0.061 ppm    S/N =   4                                            
  Data shift = 0.015 ppm                                                   
  Ph: -16 deg     -19.7 deg/ppm                                            
  alphaB,S = 1.0E+00,   1.8E+02                                            
   14 spline knots.   Ns = 8(1)                                            
  (14) 2 infls.   (13) 1 extrs.                                            
  498 points on ppm-axis = NY
      4.000000     3.992357     3.984714     3.977070     3.969427     3.961784     3.954141     3.946497     3.938854     3.931211
      3.923568     3.915925     3.908281     3.900638     3.892995     3.885352     3.877708     3.870065     3.862422     3.854779
      3.847136     3.839492     3.831849     3.824206     3.816563     3.808919     3.801276     3.793633     3.785990     3.778347
      3.770703     3.763060     3.755417     3.747774     3.740130     3.732487     3.724844     3.717201     3.709558     3.701914
      3.694271     3.686628     3.678985     3.671341     3.663698     3.656055     3.648412     3.640769     3.633125     3.625482
      3.617839     3.610196     3.602552     3.594909     3.587266     3.579623     3.571980     3.564336     3.556693     3.549050
      3.541407     3.533763     3.526120     3.518477     3.510834     3.503191     3.495547     3.487904     3.480261     3.472618
      3.464974     3.457331     3.449688     3.442045     3.434402     3.426758     3.419115     3.411472     3.403829     3.396185
      3.388542     3.380899     3.373256     3.365613     3.357969     3.350326     3.342683     3.335040     3.327396     3.319753
      3.312110     3.304467     3.296824     3.289180     3.281537     3.273894     3.266251     3.258607     3.250964     3.243321
      3.235678     3.228034     3.220391     3.212748     3.205105     3.197462     3.189818     3.182175     3.174532     3.166889
      3.159245     3.151602     3.143959     3.136316     3.128673     3.121029     3.113386     3.105743     3.098100     3.090456
      3.082813     3.075170     3.067527     3.059884     3.052240     3.044597     3.036954     3.029311     3.021667     3.014024
      3.006381     2.998738     2.991095     2.983451     2.975808     2.968165     2.960522     2.952878     2.945235     2.937592
      2.929949     2.922306     2.914662     2.907019     2.899376     2.891733     2.884089     2.876446     2.868803     2.861160
      2.853517     2.845873     2.838230     2.830587     2.822944     2.815300     2.807657     2.800014     2.792371     2.784728
      2.777084     2.769441     2.761798     2.754155     2.746511     2.738868     2.731225     2.723582     2.715939     2.708295
      2.700652     2.693009     2.685366     2.677722     2.670079     2.662436     2.654793     2.647150     2.639506     2.631863
      2.624220     2.616577     2.608933     2.601290     2.593647     2.586004     2.578361     2.570717     2.563074     2.555431
      2.547788     2.540144     2.532501     2.524858     2.517215     2.509572     2.501928     2.494285     2.486642     2.478999
      2.471355     2.463712     2.456069     2.448426     2.440783     2.433139     2.425496     2.417853     2.410210     2.402566
      2.394923     2.387280     2.379637     2.371994     2.364350     2.356707     2.349064     2.341421     2.333777     2.326134
      2.318491     2.310848     2.303205     2.295561     2.287918     2.280275     2.272632     2.264988     2.257345     2.249702
      2.242059     2.234416     2.226772     2.219129     2.211486     2.203843     2.196199     2.188556     2.180913     2.173270
      2.165627     2.157983     2.150340     2.142697     2.135054     2.127410     2.119767     2.112124     2.104481     2.096838
      2.089194     2.081551     2.073908     2.066265     2.058621     2.050978     2.043335     2.035692     2.028049     2.020405
      2.012762     2.005119     1.997476     1.989833     1.982190     1.974546     1.966903     1.959260     1.951617     1.943974
      1.936331     1.928688     1.921045     1.913402     1.905759     1.898115     1.890472     1.882829     1.875186     1.867543
      1.859900     1.852257     1.844614     1.836971     1.829327     1.821684     1.814041     1.806398     1.798755     1.791112
      1.783469     1.775826     1.768183     1.760540     1.752896     1.745253     1.737610     1.729967     1.722324     1.714681
      1.707038     1.699395     1.691752     1.684108     1.676465     1.668822     1.661179     1.653536     1.645893     1.638250
      1.630607     1.622964     1.615321     1.607677     1.600034     1.592391     1.584748     1.577105     1.569462     1.561819
      1.554176     1.546533     1.538890     1.531246     1.523603     1.515960     1.508317     1.500674     1.493031     1.485388
      1.477745     1.470102     1.462458     1.454815     1.447172     1.439529     1.431886     1.424243     1.416600     1.408957
      1.401314     1.393671     1.386027     1.378384     1.370741     1.363098     1.355455     1.347812     1.340169     1.332526
      1.324883     1.317240     1.309596     1.301953     1.294310     1.286667     1.279024     1.271381     1.263738     1.256095
      1.248452     1.240808     1.233165     1.225522     1.217879     1.210236     1.202593     1.194950     1.187307     1.179664
      1.172021     1.164377     1.156734     1.149091     1.141448     1.133805     1.126162     1.118519     1.110876     1.103233
      1.095590     1.087946     1.080303     1.072660     1.065017     1.057374     1.049731     1.042088     1.034445     1.026802
      1.019158     1.011515     1.003872     0.996229     0.988586     0.980943     0.973300     0.965657     0.958014     0.950371
      0.942727     0.935084     0.927441     0.919798     0.912155     0.904512     0.896869     0.889226     0.881583     0.873940
      0.866296     0.858653     0.851010     0.843367     0.835724     0.828081     0.820438     0.812795     0.805152     0.797508
      0.789865     0.782222     0.774579     0.766936     0.759293     0.751650     0.744007     0.736364     0.728721     0.721077
      0.713434     0.705791     0.698148     0.690505     0.682862     0.675219     0.667576     0.659933     0.652290     0.644646
      0.637003     0.629360     0.621717     0.614074     0.606431     0.598788     0.591145     0.583502     0.575858     0.568215
      0.560572     0.552929     0.545286     0.537643     0.530000     0.522357     0.514714     0.507071     0.499427     0.491784
      0.484141     0.476498     0.468855     0.461212     0.453569     0.445925     0.438282     0.430639     0.422996     0.415353
      0.407710     0.400067     0.392424     0.384780     0.377137     0.369494     0.361851     0.354208     0.346565     0.338922
      0.331278     0.323635     0.315992     0.308349     0.300706     0.293063     0.285420     0.277777     0.270133     0.262490
      0.254847     0.247204     0.239561     0.231918     0.224275     0.216631     0.208988     0.201345
 NY phased data points follow
   9.54879E+00  1.49428E+01  1.65698E+01  2.31129E+01  1.73644E+01  1.50050E+01  2.15947E+01  1.93206E+01  2.01360E+01  2.26484E+01
   1.99966E+01  1.98180E+01  1.69441E+01  1.93223E+01  1.47648E+01  1.34101E+01  1.32883E+01  1.08351E+01  1.46646E+01  1.90266E+01
   1.09505E+01  1.00925E+01  1.21354E+01  9.39156E+00  1.09153E+01  1.61618E+01  1.60460E+01  1.25366E+01  1.43243E+01  1.32191E+01
   9.64180E+00  1.42770E+01  1.82355E+01  1.24081E+01  9.98281E+00  1.30685E+01  1.05410E+01  1.52229E+01  1.10829E+01  1.34136E+01
   1.11936E+01  1.53487E+01  1.12563E+01  1.37314E+01  1.09549E+01  1.24256E+01  1.13305E+01  8.03997E+00  9.94432E+00  1.12444E+01
   1.00499E+01  1.19307E+01  1.08097E+01  1.11024E+01  7.30616E+00  1.09098E+01  5.60612E+00  8.42306E+00  5.99071E+00  1.10222E+01
   8.21165E+00  1.02291E+01  1.20812E+01  9.38347E+00  4.94347E+00  5.71177E+00  8.39969E+00  1.35436E+01  7.30977E+00  8.26871E+00
   1.05210E+01  8.39204E+00  5.62278E+00  1.03271E+01  5.73028E+00  1.38579E+01  1.01077E+01  7.77269E+00  4.02117E+00  5.96801E+00
   1.24794E+01  1.46860E+01  1.15634E+01  7.84716E+00  6.18994E+00  5.92786E+00  6.81893E+00  7.65994E+00  6.13202E+00  7.89419E+00
   6.74998E+00  9.35403E+00  1.11352E+01  7.06668E+00  8.34673E+00  9.30661E+00  7.64878E+00  1.14501E+01  1.36223E+01  1.37651E+01
   1.86757E+01  2.24087E+01  1.78543E+01  2.38001E+01  1.90815E+01  1.82005E+01  1.35413E+01  1.45063E+01  8.18509E+00  6.98253E+00
   4.72290E+00  7.63240E+00  8.79919E+00  6.73015E+00  9.01390E+00  2.56489E+00  8.51462E+00  8.22439E+00  6.24561E+00  1.05846E+01
   8.82600E+00  1.32545E+01  1.47984E+01  1.56736E+01  1.69876E+01  2.54212E+01  2.33524E+01  2.36380E+01  2.29986E+01  1.71271E+01
   1.54000E+01  1.35997E+01  1.13794E+01  1.08122E+01  9.39577E+00  9.88763E+00  5.62304E+00  6.74872E+00  7.34834E+00  1.00664E+01
   3.85291E+00  9.77054E+00  2.40973E+00  7.02372E+00  7.50492E+00  3.21119E+00  7.57676E+00  6.33153E+00  4.88578E+00  7.44257E+00
   3.47444E+00  5.18947E+00  7.86212E+00  1.51669E+00  2.70218E+00  7.37266E+00  2.85078E+00  9.40552E+00  4.90754E+00  4.72261E+00
   2.30302E+00  2.02343E+00  3.72101E+00  3.36199E+00  2.92511E+00  3.47632E+00  3.98871E+00  6.53617E+00  7.31463E+00  5.45340E+00
   3.94869E+00  2.14283E+00  2.09105E-01  6.50089E+00  1.70158E+00 -5.75450E-01  5.75607E+00  2.73177E+00  1.94433E+00 -3.01097E-01
   3.38775E+00 -9.84608E-01  1.74622E-01  4.29959E-01  3.28100E+00  1.89912E+00  3.88504E+00  1.11526E+00  1.79932E-01  3.48736E+00
   7.91047E+00  4.18601E+00  3.67312E+00  5.55867E+00  3.87973E+00  1.03429E+00  4.47826E+00  4.80791E+00  1.10345E+00  4.42969E+00
   7.30728E-01  7.27872E+00  4.05666E+00  5.18140E+00  9.18191E-01  5.41529E+00  5.69057E+00  6.73339E+00  7.40691E+00  5.58522E+00
  -4.22808E-01  4.08835E+00  6.57303E+00  1.01063E+01  8.29640E+00  1.17914E+01  6.79274E+00  6.95148E+00  4.77663E+00  9.70801E+00
   4.57408E+00  4.79769E+00  3.45711E+00  5.86183E+00  1.06448E+01  3.22907E-01  8.13395E+00  2.85287E+00  7.99680E+00  2.63577E+00
   6.99729E+00  4.70388E+00  3.20588E+00  7.08348E+00  7.25913E+00  5.34550E+00  7.39726E+00  1.03555E+01  9.14069E+00  6.40949E+00
   7.54393E+00  6.50700E+00  2.89314E+00  8.06407E+00  8.41964E+00  7.57099E+00  8.57678E+00  1.03454E+01  8.97352E+00  1.06450E+01
   1.14502E+01  1.10068E+01  1.09074E+01  1.58534E+01  1.30974E+01  1.70424E+01  1.80244E+01  2.00374E+01  2.50586E+01  3.23223E+01
   3.38954E+01  3.05373E+01  2.84381E+01  2.77595E+01  1.94983E+01  1.69142E+01  1.72780E+01  1.21167E+01  1.06328E+01  9.30764E+00
   1.18822E+01  1.09257E+01  1.67913E+01  1.05057E+01  9.15600E+00  7.91647E+00  1.18204E+01  1.01744E+01  1.02872E+01  6.22834E+00
   1.06058E+01  1.61323E+01  8.89306E+00  1.29796E+01  1.06044E+01  1.05329E+01  1.13595E+01  7.70714E+00  1.01608E+01  1.02759E+01
   5.83519E+00  1.06637E+01  1.19062E+01  6.82440E+00  1.18945E+01  9.15104E+00  1.19818E+01  7.13451E+00  6.87478E+00  1.08606E+01
   1.19697E+01  1.30776E+01  1.21941E+01  1.47460E+01  1.07624E+01  1.42013E+01  1.26697E+01  1.57149E+01  1.01850E+01  1.55098E+01
   1.59651E+01  1.57925E+01  1.23278E+01  1.48256E+01  1.57942E+01  1.33745E+01  2.19446E+01  1.65953E+01  1.74953E+01  2.01990E+01
   1.99357E+01  2.08034E+01  1.96506E+01  1.94555E+01  2.31109E+01  2.18639E+01  1.75749E+01  2.26356E+01  2.21496E+01  2.22061E+01
   2.49987E+01  2.41485E+01  2.32368E+01  2.21919E+01  2.39639E+01  2.26827E+01  2.01028E+01  2.14243E+01  1.71857E+01  1.48117E+01
   1.43401E+01  1.68752E+01  1.90134E+01  1.98773E+01  1.83414E+01  1.79762E+01  2.18189E+01  2.32073E+01  2.44365E+01  2.34298E+01
   2.44191E+01  2.25268E+01  2.00880E+01  2.20689E+01  1.96021E+01  2.23713E+01  1.66363E+01  1.97086E+01  1.62039E+01  1.56922E+01
   1.85880E+01  1.59223E+01  1.51032E+01  1.57319E+01  1.57861E+01  1.85597E+01  1.40357E+01  1.37350E+01  1.18360E+01  8.96441E+00
   1.53375E+01  9.97205E+00  1.20609E+01  1.02231E+01  5.23547E+00  4.74228E+00  1.36624E+01  6.88071E+00  1.36868E+01  9.48379E+00
   1.13782E+01  1.14051E+01  8.91554E+00  9.50170E+00  7.29184E+00  7.66610E+00  1.10229E+01  5.56498E+00  1.12508E+01  1.17035E+01
   1.47880E+01  1.07476E+01  8.91285E+00  1.12902E+01  9.99833E+00  6.54038E+00  9.20221E+00  1.05714E+01  1.10813E+01  1.22802E+01
   9.74350E+00  8.83307E+00  1.35598E+01  1.12661E+01  7.77072E+00  8.98191E+00  8.34634E+00  1.15465E+01  1.46612E+01  9.21208E+00
   8.72300E+00  1.17538E+01  5.90640E+00  6.58196E+00  7.70930E+00  7.39706E+00  7.61493E+00  8.37884E+00  9.21859E+00  4.68699E+00
   4.77976E+00  7.28578E+00  6.80361E+00  8.72603E+00  7.78780E+00  6.47201E+00  6.85600E+00  9.30046E+00  6.21527E+00  8.88023E+00
   5.92706E+00  8.38874E+00  6.01272E+00  3.65447E+00  7.60529E+00  8.58781E+00  6.52187E+00  3.39091E+00  2.99064E+00  1.41880E+00
   4.53093E-01  6.40236E+00  1.10504E+00 -1.32674E-02  2.35051E+00  5.93705E+00  3.18686E+00  4.11311E+00  6.12656E+00  4.22133E+00
   7.56282E+00  4.15014E+00  8.17248E+00  7.86574E+00  7.00504E+00  5.60393E+00  1.98597E+00  4.62366E+00  5.21662E+00  5.20196E+00
   8.80523E+00  6.10146E+00  4.00811E+00  1.68306E+00  3.80611E+00  7.10184E+00  2.79035E+00  2.28884E+00 -2.12296E+00  1.74906E+00
   4.94209E+00  3.44263E+00  2.69360E+00  7.77135E+00  2.77014E+00  5.12082E+00  4.46610E+00  4.93074E+00  3.26822E+00  3.19945E+00
   3.13032E+00  3.69320E+00  5.56106E+00  6.68415E+00  1.89040E+00  4.72629E+00  1.69708E+00  2.44491E+00  6.10647E+00  4.74636E+00
   3.59255E+00  2.51874E+00  6.01635E-01  6.25073E+00  6.42987E+00  3.86188E+00  4.50768E+00  9.78983E-01
 NY points of the fit to the data follow
   1.16820E+01  1.23739E+01  1.34769E+01  1.48288E+01  1.63284E+01  1.79251E+01  1.95154E+01  2.08367E+01  2.15856E+01  2.15903E+01
   2.08653E+01  1.95877E+01  1.80270E+01  1.64496E+01  1.50168E+01  1.37781E+01  1.27280E+01  1.18887E+01  1.13509E+01  1.11353E+01
   1.09941E+01  1.08630E+01  1.08533E+01  1.09821E+01  1.12418E+01  1.16327E+01  1.21679E+01  1.28522E+01  1.36056E+01  1.43000E+01
   1.47952E+01  1.49796E+01  1.47977E+01  1.42614E+01  1.34709E+01  1.25845E+01  1.17246E+01  1.09871E+01  1.04341E+01  1.01481E+01
   1.01913E+01  1.04655E+01  1.08616E+01  1.12988E+01  1.17254E+01  1.20890E+01  1.23127E+01  1.23400E+01  1.21446E+01  1.17478E+01
   1.12130E+01  1.06392E+01  1.01298E+01  9.73939E+00  9.46496E+00  9.28515E+00  9.19116E+00  9.17656E+00  9.21850E+00  9.26632E+00
   9.26583E+00  9.19342E+00  9.05457E+00  8.87567E+00  8.70895E+00  8.58934E+00  8.52620E+00  8.51659E+00  8.55209E+00  8.62474E+00
   8.71852E+00  8.80794E+00  8.87191E+00  8.89251E+00  8.86429E+00  8.78788E+00  8.67260E+00  8.54231E+00  8.44180E+00  8.38217E+00
   8.33527E+00  8.28448E+00  8.23669E+00  8.18865E+00  8.12322E+00  8.01630E+00  7.85505E+00  7.64811E+00  7.43263E+00  7.24974E+00
   7.12363E+00  7.06501E+00  7.06986E+00  7.16783E+00  7.60785E+00  8.71450E+00  1.02989E+01  1.21083E+01  1.40217E+01  1.60156E+01
   1.79879E+01  1.96136E+01  2.04879E+01  2.03777E+01  1.93183E+01  1.75638E+01  1.54838E+01  1.34178E+01  1.15560E+01  9.95677E+00
   8.61554E+00  7.55626E+00  6.91103E+00  6.70895E+00  6.66029E+00  6.65688E+00  6.69930E+00  6.86255E+00  7.49521E+00  8.88174E+00
   1.07674E+01  1.29119E+01  1.52169E+01  1.76433E+01  2.00153E+01  2.19309E+01  2.29438E+01  2.28019E+01  2.15605E+01  1.95228E+01
   1.71028E+01  1.46753E+01  1.24391E+01  1.04481E+01  8.72522E+00  7.34478E+00  6.51229E+00  6.22863E+00  6.18903E+00  6.26531E+00
   6.38842E+00  6.50611E+00  6.58671E+00  6.62478E+00  6.61910E+00  6.55814E+00  6.44825E+00  6.30179E+00  6.13392E+00  5.96907E+00
   5.82449E+00  5.70536E+00  5.60744E+00  5.50664E+00  5.39359E+00  5.27697E+00  5.16490E+00  5.06534E+00  4.97237E+00  4.88076E+00
   4.80227E+00  4.75413E+00  4.74417E+00  4.76096E+00  4.77864E+00  4.77275E+00  4.73241E+00  4.65701E+00  4.54545E+00  4.40111E+00
   4.25074E+00  4.10399E+00  3.96145E+00  3.81754E+00  3.67553E+00  3.56897E+00  3.51494E+00  3.50048E+00  3.49999E+00  3.48596E+00
   3.46003E+00  3.45955E+00  3.51451E+00  3.63731E+00  3.82232E+00  4.04905E+00  4.29714E+00  4.56520E+00  4.83975E+00  5.07647E+00
   5.20954E+00  5.20811E+00  5.09540E+00  4.94354E+00  4.82490E+00  4.78960E+00  4.88545E+00  5.14584E+00  5.56367E+00  6.08285E+00
   6.60407E+00  7.00942E+00  7.14753E+00  6.99532E+00  6.59159E+00  5.97409E+00  5.22107E+00  4.48720E+00  4.00523E+00  3.92211E+00
   4.23659E+00  4.88855E+00  5.76569E+00  6.69416E+00  7.43209E+00  7.77258E+00  7.66759E+00  7.19404E+00  6.45627E+00  5.59229E+00
   4.77085E+00  4.23527E+00  4.12131E+00  4.39274E+00  4.94424E+00  5.67175E+00  6.46495E+00  7.14589E+00  7.58909E+00  7.84577E+00
   8.01031E+00  8.12818E+00  8.20245E+00  8.26927E+00  8.38277E+00  8.52048E+00  8.63880E+00  8.71823E+00  8.73899E+00  8.66966E+00
   8.51035E+00  8.29755E+00  8.10889E+00  8.02793E+00  8.08199E+00  8.25635E+00  8.51793E+00  8.85379E+00  9.22903E+00  9.61423E+00
   1.00063E+01  1.04750E+01  1.13832E+01  1.31706E+01  1.55628E+01  1.82243E+01  2.10175E+01  2.39143E+01  2.67562E+01  2.90713E+01
   3.02621E+01  2.99800E+01  2.82656E+01  2.54932E+01  2.22047E+01  1.89146E+01  1.59252E+01  1.33343E+01  1.11415E+01  9.39462E+00
   8.30419E+00  7.91566E+00  7.79791E+00  7.76372E+00  7.76785E+00  7.77722E+00  7.76807E+00  7.74258E+00  7.70514E+00  7.66308E+00
   7.62601E+00  7.60442E+00  7.60578E+00  7.63864E+00  7.70821E+00  7.81188E+00  7.94466E+00  8.10235E+00  8.28070E+00  8.47680E+00
   8.68828E+00  8.91262E+00  9.14946E+00  9.39766E+00  9.65522E+00  9.92042E+00  1.01910E+01  1.04633E+01  1.07333E+01  1.09977E+01
   1.12543E+01  1.15009E+01  1.17367E+01  1.19623E+01  1.21793E+01  1.23908E+01  1.26016E+01  1.28175E+01  1.30453E+01  1.32921E+01
   1.35651E+01  1.38711E+01  1.42159E+01  1.46040E+01  1.50378E+01  1.55174E+01  1.60402E+01  1.66011E+01  1.71919E+01  1.78022E+01
   1.84192E+01  1.90285E+01  1.96144E+01  2.01612E+01  2.06536E+01  2.10776E+01  2.14211E+01  2.16752E+01  2.18338E+01  2.18950E+01
   2.18605E+01  2.17359E+01  2.15304E+01  2.12566E+01  2.09297E+01  2.05671E+01  2.01879E+01  1.98117E+01  1.94588E+01  1.91489E+01
   1.89009E+01  1.87320E+01  1.86567E+01  1.86852E+01  1.88223E+01  1.90653E+01  1.94025E+01  1.98123E+01  2.02629E+01  2.07144E+01
   2.11215E+01  2.14385E+01  2.16248E+01  2.16497E+01  2.14966E+01  2.11652E+01  2.06705E+01  2.00401E+01  1.93098E+01  1.85177E+01
   1.77001E+01  1.68873E+01  1.61022E+01  1.53592E+01  1.46657E+01  1.40235E+01  1.34311E+01  1.28850E+01  1.23812E+01  1.19166E+01
   1.14884E+01  1.10950E+01  1.07355E+01  1.04096E+01  1.01175E+01  9.85930E+00  9.63540E+00  9.44599E+00  9.29118E+00  9.17098E+00
   9.08523E+00  9.03359E+00  9.01552E+00  9.03025E+00  9.07676E+00  9.15372E+00  9.25943E+00  9.39173E+00  9.54798E+00  9.72499E+00
   9.91906E+00  1.01259E+01  1.03407E+01  1.05581E+01  1.07725E+01  1.09779E+01  1.11684E+01  1.13382E+01  1.14817E+01  1.15938E+01
   1.16704E+01  1.17081E+01  1.17045E+01  1.16586E+01  1.15703E+01  1.14406E+01  1.12720E+01  1.10675E+01  1.08313E+01  1.05678E+01
   1.02823E+01  9.97985E+00  9.66582E+00  9.34529E+00  9.02301E+00  8.70330E+00  8.38991E+00  8.08601E+00  7.79418E+00  7.51639E+00
   7.25404E+00  7.00798E+00  6.77862E+00  6.56598E+00  6.36977E+00  6.18944E+00  6.02425E+00  5.87331E+00  5.73566E+00  5.61032E+00
   5.49630E+00  5.39261E+00  5.29830E+00  5.21247E+00  5.13428E+00  5.06298E+00  4.99787E+00  4.93831E+00  4.88371E+00  4.83354E+00
   4.78736E+00  4.74475E+00  4.70535E+00  4.66883E+00  4.63489E+00  4.60326E+00  4.57373E+00  4.54611E+00  4.52020E+00  4.49585E+00
   4.47290E+00  4.45123E+00  4.43073E+00  4.41131E+00  4.39288E+00  4.37533E+00  4.35860E+00  4.34263E+00  4.32737E+00  4.31275E+00
   4.29874E+00  4.28526E+00  4.27230E+00  4.25981E+00  4.24777E+00  4.23615E+00  4.22491E+00  4.21403E+00  4.20347E+00  4.19324E+00
   4.18332E+00  4.17367E+00  4.16429E+00  4.15514E+00  4.14624E+00  4.13757E+00  4.12912E+00  4.12086E+00  4.11279E+00  4.10491E+00
   4.09721E+00  4.08968E+00  4.08233E+00  4.07513E+00  4.06808E+00  4.06118E+00  4.05444E+00  4.04785E+00  4.04141E+00  4.03511E+00
   4.02895E+00  4.02294E+00  4.01709E+00  4.01140E+00  4.00587E+00  4.00050E+00  3.99530E+00  3.99030E+00
 NY background values follow
     9.492E+00    9.456E+00    9.420E+00    9.383E+00    9.347E+00    9.310E+00    9.274E+00    9.238E+00    9.201E+00    9.165E+00
     9.128E+00    9.092E+00    9.055E+00    9.019E+00    8.983E+00    8.946E+00    8.910E+00    8.874E+00    8.837E+00    8.801E+00
     8.765E+00    8.728E+00    8.692E+00    8.656E+00    8.620E+00    8.583E+00    8.547E+00    8.511E+00    8.475E+00    8.439E+00
     8.403E+00    8.367E+00    8.331E+00    8.295E+00    8.259E+00    8.223E+00    8.188E+00    8.152E+00    8.116E+00    8.080E+00
     8.045E+00    8.009E+00    7.974E+00    7.938E+00    7.903E+00    7.868E+00    7.832E+00    7.797E+00    7.762E+00    7.727E+00
     7.692E+00    7.657E+00    7.622E+00    7.587E+00    7.552E+00    7.518E+00    7.483E+00    7.449E+00    7.414E+00    7.380E+00
     7.346E+00    7.312E+00    7.278E+00    7.244E+00    7.210E+00    7.176E+00    7.142E+00    7.109E+00    7.075E+00    7.042E+00
     7.009E+00    6.976E+00    6.943E+00    6.910E+00    6.877E+00    6.845E+00    6.812E+00    6.780E+00    6.747E+00    6.715E+00
     6.683E+00    6.651E+00    6.620E+00    6.588E+00    6.557E+00    6.525E+00    6.494E+00    6.463E+00    6.432E+00    6.402E+00
     6.371E+00    6.341E+00    6.310E+00    6.280E+00    6.250E+00    6.221E+00    6.191E+00    6.162E+00    6.132E+00    6.103E+00
     6.074E+00    6.046E+00    6.017E+00    5.989E+00    5.961E+00    5.933E+00    5.905E+00    5.877E+00    5.850E+00    5.822E+00
     5.795E+00    5.768E+00    5.742E+00    5.715E+00    5.689E+00    5.663E+00    5.637E+00    5.611E+00    5.586E+00    5.561E+00
     5.536E+00    5.511E+00    5.486E+00    5.462E+00    5.438E+00    5.414E+00    5.390E+00    5.367E+00    5.344E+00    5.321E+00
     5.298E+00    5.275E+00    5.253E+00    5.231E+00    5.209E+00    5.188E+00    5.166E+00    5.145E+00    5.125E+00    5.104E+00
     5.084E+00    5.064E+00    5.044E+00    5.024E+00    5.005E+00    4.986E+00    4.967E+00    4.949E+00    4.931E+00    4.913E+00
     4.895E+00    4.877E+00    4.860E+00    4.843E+00    4.827E+00    4.810E+00    4.794E+00    4.779E+00    4.763E+00    4.748E+00
     4.733E+00    4.718E+00    4.704E+00    4.690E+00    4.676E+00    4.662E+00    4.649E+00    4.636E+00    4.623E+00    4.611E+00
     4.599E+00    4.587E+00    4.575E+00    4.564E+00    4.553E+00    4.542E+00    4.532E+00    4.522E+00    4.512E+00    4.503E+00
     4.494E+00    4.485E+00    4.476E+00    4.468E+00    4.460E+00    4.453E+00    4.445E+00    4.438E+00    4.432E+00    4.425E+00
     4.419E+00    4.413E+00    4.408E+00    4.402E+00    4.397E+00    4.392E+00    4.388E+00    4.384E+00    4.380E+00    4.376E+00
     4.373E+00    4.370E+00    4.367E+00    4.364E+00    4.361E+00    4.359E+00    4.357E+00    4.356E+00    4.354E+00    4.353E+00
     4.352E+00    4.351E+00    4.351E+00    4.351E+00    4.351E+00    4.351E+00    4.351E+00    4.352E+00    4.353E+00    4.354E+00
     4.355E+00    4.356E+00    4.358E+00    4.360E+00    4.362E+00    4.364E+00    4.367E+00    4.369E+00    4.372E+00    4.375E+00
     4.378E+00    4.382E+00    4.385E+00    4.389E+00    4.393E+00    4.397E+00    4.401E+00    4.405E+00    4.410E+00    4.414E+00
     4.419E+00    4.424E+00    4.428E+00    4.433E+00    4.439E+00    4.444E+00    4.449E+00    4.455E+00    4.460E+00    4.466E+00
     4.471E+00    4.477E+00    4.483E+00    4.488E+00    4.494E+00    4.500E+00    4.506E+00    4.512E+00    4.518E+00    4.524E+00
     4.530E+00    4.536E+00    4.542E+00    4.549E+00    4.555E+00    4.561E+00    4.567E+00    4.573E+00    4.579E+00    4.585E+00
     4.591E+00    4.597E+00    4.603E+00    4.609E+00    4.614E+00    4.620E+00    4.626E+00    4.632E+00    4.637E+00    4.643E+00
     4.648E+00    4.654E+00    4.659E+00    4.665E+00    4.670E+00    4.675E+00    4.680E+00    4.685E+00    4.690E+00    4.695E+00
     4.700E+00    4.705E+00    4.709E+00    4.714E+00    4.719E+00    4.723E+00    4.727E+00    4.732E+00    4.736E+00    4.740E+00
     4.744E+00    4.748E+00    4.752E+00    4.756E+00    4.759E+00    4.763E+00    4.766E+00    4.770E+00    4.773E+00    4.776E+00
     4.779E+00    4.782E+00    4.785E+00    4.787E+00    4.790E+00    4.793E+00    4.795E+00    4.797E+00    4.799E+00    4.801E+00
     4.803E+00    4.805E+00    4.807E+00    4.808E+00    4.809E+00    4.811E+00    4.812E+00    4.813E+00    4.814E+00    4.815E+00
     4.816E+00    4.816E+00    4.817E+00    4.817E+00    4.818E+00    4.818E+00    4.818E+00    4.818E+00    4.818E+00    4.818E+00
     4.818E+00    4.817E+00    4.817E+00    4.817E+00    4.816E+00    4.815E+00    4.814E+00    4.814E+00    4.813E+00    4.812E+00
     4.810E+00    4.809E+00    4.808E+00    4.806E+00    4.805E+00    4.803E+00    4.802E+00    4.800E+00    4.798E+00    4.796E+00
     4.795E+00    4.793E+00    4.790E+00    4.788E+00    4.786E+00    4.784E+00    4.781E+00    4.779E+00    4.776E+00    4.774E+00
     4.771E+00    4.769E+00    4.766E+00    4.763E+00    4.760E+00    4.757E+00    4.754E+00    4.751E+00    4.748E+00    4.745E+00
     4.742E+00    4.739E+00    4.735E+00    4.732E+00    4.729E+00    4.725E+00    4.722E+00    4.718E+00    4.715E+00    4.711E+00
     4.707E+00    4.704E+00    4.700E+00    4.696E+00    4.692E+00    4.689E+00    4.685E+00    4.681E+00    4.677E+00    4.673E+00
     4.669E+00    4.665E+00    4.661E+00    4.657E+00    4.653E+00    4.649E+00    4.645E+00    4.640E+00    4.636E+00    4.632E+00
     4.628E+00    4.624E+00    4.619E+00    4.615E+00    4.611E+00    4.607E+00    4.602E+00    4.598E+00    4.594E+00    4.589E+00
     4.585E+00    4.580E+00    4.576E+00    4.572E+00    4.567E+00    4.563E+00    4.558E+00    4.554E+00    4.549E+00    4.544E+00
     4.540E+00    4.535E+00    4.531E+00    4.526E+00    4.521E+00    4.517E+00    4.512E+00    4.507E+00    4.503E+00    4.498E+00
     4.493E+00    4.488E+00    4.484E+00    4.479E+00    4.474E+00    4.469E+00    4.464E+00    4.459E+00    4.455E+00    4.450E+00
     4.445E+00    4.440E+00    4.435E+00    4.430E+00    4.425E+00    4.420E+00    4.415E+00    4.410E+00    4.405E+00    4.400E+00
     4.395E+00    4.390E+00    4.384E+00    4.379E+00    4.374E+00    4.369E+00    4.364E+00    4.359E+00    4.354E+00    4.348E+00
     4.343E+00    4.338E+00    4.333E+00    4.328E+00    4.322E+00    4.317E+00    4.312E+00    4.307E+00    4.301E+00    4.296E+00
     4.291E+00    4.286E+00    4.280E+00    4.275E+00    4.270E+00    4.265E+00    4.259E+00    4.254E+00    4.249E+00    4.244E+00
     4.238E+00    4.233E+00    4.228E+00    4.222E+00    4.217E+00    4.212E+00    4.207E+00    4.201E+00
 Asp      Conc. = 1.06E+02
