 LCModel (Version 6.3-1L) Copyright: S.W. Provencher.          Ref.: Magn. Reson. Med. 30:672-679 (1993).                
 Slice#2 Row#6 Col#5  K_02_press_1_raw_act
 36 lines in following concentration table = NCONC+1
    Conc.  %SD /Cr+PCr  Metabolite                                         
  114.712  96% 6.0E-02 Ala                                                 
    0.000 999%   0.000 Asp                                                 
  673.852  34%   0.355 Cr                                                  
 1.22E+03  20%   0.645 PCr                                                 
   67.823 286% 3.6E-02 GABA                                                
    0.000 999%   0.000 Glc                                                 
  438.481  52%   0.231 Gln                                                 
 1.71E+03  16%   0.902 Glu                                                 
  837.863   3%   0.442 GPC                                                 
    0.000 999%   0.000 PCh                                                 
  639.551  13%   0.337 GSH                                                 
 1.19E+03  25%   0.625 Ins                                                 
    0.000 999%   0.000 Lac                                                 
 2.83E+03   5%   1.491 NAA                                                 
  980.747  12%   0.517 NAAG                                                
   73.050  45% 3.9E-02 Scyllo                                              
    0.000 999%   0.000 Tau                                                 
   95.152 146% 5.0E-02 -CrCH2                                              
  837.863   3%   0.442 GPC+PCh                                             
 3.81E+03   3%   2.008 NAA+NAAG                                            
 1.90E+03   4%   1.000 Cr+PCr                                              
 2.15E+03  17%   1.134 Glu+Gln                                             
 2.04E+03  29%   1.078 Lip13a                                              
    0.000 999%   0.000 Lip13b                                              
    0.000 999%   0.000 Lip09                                               
 1.42E+03  18%   0.747 MM09                                                
  430.752  55%   0.227 Lip20                                               
 2.45E+03  19%   1.293 MM20                                                
  439.947  30%   0.232 MM12                                                
  926.528  42%   0.489 MM14                                                
 1.06E+03  25%   0.557 MM17                                                
 2.04E+03  29%   1.078 Lip13a+Lip13b                                       
 3.41E+03  20%   1.798 MM14+Lip13a+Lip13b+MM12                             
 1.42E+03  18%   0.747 MM09+Lip09                                          
 2.88E+03  17%   1.520 MM20+Lip20                                          
   6 lines in following misc. output table
  FWHM = 0.046 ppm    S/N =  14                                            
  Data shift = 0.015 ppm                                                   
  Ph: -19 deg      -5.0 deg/ppm                                            
  alphaB,S = 6.1E-01,   9.0E+01                                            
   14 spline knots.   Ns = 6(1)                                            
  ( 7) 2 infls.   ( 3) 1 extrs.                                            
  498 points on ppm-axis = NY
      4.000000     3.992357     3.984714     3.977070     3.969427     3.961784     3.954141     3.946497     3.938854     3.931211
      3.923568     3.915925     3.908281     3.900638     3.892995     3.885352     3.877708     3.870065     3.862422     3.854779
      3.847136     3.839492     3.831849     3.824206     3.816563     3.808919     3.801276     3.793633     3.785990     3.778347
      3.770703     3.763060     3.755417     3.747774     3.740130     3.732487     3.724844     3.717201     3.709558     3.701914
      3.694271     3.686628     3.678985     3.671341     3.663698     3.656055     3.648412     3.640769     3.633125     3.625482
      3.617839     3.610196     3.602552     3.594909     3.587266     3.579623     3.571980     3.564336     3.556693     3.549050
      3.541407     3.533763     3.526120     3.518477     3.510834     3.503191     3.495547     3.487904     3.480261     3.472618
      3.464974     3.457331     3.449688     3.442045     3.434402     3.426758     3.419115     3.411472     3.403829     3.396185
      3.388542     3.380899     3.373256     3.365613     3.357969     3.350326     3.342683     3.335040     3.327396     3.319753
      3.312110     3.304467     3.296824     3.289180     3.281537     3.273894     3.266251     3.258607     3.250964     3.243321
      3.235678     3.228034     3.220391     3.212748     3.205105     3.197462     3.189818     3.182175     3.174532     3.166889
      3.159245     3.151602     3.143959     3.136316     3.128673     3.121029     3.113386     3.105743     3.098100     3.090456
      3.082813     3.075170     3.067527     3.059884     3.052240     3.044597     3.036954     3.029311     3.021667     3.014024
      3.006381     2.998738     2.991095     2.983451     2.975808     2.968165     2.960522     2.952878     2.945235     2.937592
      2.929949     2.922306     2.914662     2.907019     2.899376     2.891733     2.884089     2.876446     2.868803     2.861160
      2.853517     2.845873     2.838230     2.830587     2.822944     2.815300     2.807657     2.800014     2.792371     2.784728
      2.777084     2.769441     2.761798     2.754155     2.746511     2.738868     2.731225     2.723582     2.715939     2.708295
      2.700652     2.693009     2.685366     2.677722     2.670079     2.662436     2.654793     2.647150     2.639506     2.631863
      2.624220     2.616577     2.608933     2.601290     2.593647     2.586004     2.578361     2.570717     2.563074     2.555431
      2.547788     2.540144     2.532501     2.524858     2.517215     2.509572     2.501928     2.494285     2.486642     2.478999
      2.471355     2.463712     2.456069     2.448426     2.440783     2.433139     2.425496     2.417853     2.410210     2.402566
      2.394923     2.387280     2.379637     2.371994     2.364350     2.356707     2.349064     2.341421     2.333777     2.326134
      2.318491     2.310848     2.303205     2.295561     2.287918     2.280275     2.272632     2.264988     2.257345     2.249702
      2.242059     2.234416     2.226772     2.219129     2.211486     2.203843     2.196199     2.188556     2.180913     2.173270
      2.165627     2.157983     2.150340     2.142697     2.135054     2.127410     2.119767     2.112124     2.104481     2.096838
      2.089194     2.081551     2.073908     2.066265     2.058621     2.050978     2.043335     2.035692     2.028049     2.020405
      2.012762     2.005119     1.997476     1.989833     1.982190     1.974546     1.966903     1.959260     1.951617     1.943974
      1.936331     1.928688     1.921045     1.913402     1.905759     1.898115     1.890472     1.882829     1.875186     1.867543
      1.859900     1.852257     1.844614     1.836971     1.829327     1.821684     1.814041     1.806398     1.798755     1.791112
      1.783469     1.775826     1.768183     1.760540     1.752896     1.745253     1.737610     1.729967     1.722324     1.714681
      1.707038     1.699395     1.691752     1.684108     1.676465     1.668822     1.661179     1.653536     1.645893     1.638250
      1.630607     1.622964     1.615321     1.607677     1.600034     1.592391     1.584748     1.577105     1.569462     1.561819
      1.554176     1.546533     1.538890     1.531246     1.523603     1.515960     1.508317     1.500674     1.493031     1.485388
      1.477745     1.470102     1.462458     1.454815     1.447172     1.439529     1.431886     1.424243     1.416600     1.408957
      1.401314     1.393671     1.386027     1.378384     1.370741     1.363098     1.355455     1.347812     1.340169     1.332526
      1.324883     1.317240     1.309596     1.301953     1.294310     1.286667     1.279024     1.271381     1.263738     1.256095
      1.248452     1.240808     1.233165     1.225522     1.217879     1.210236     1.202593     1.194950     1.187307     1.179664
      1.172021     1.164377     1.156734     1.149091     1.141448     1.133805     1.126162     1.118519     1.110876     1.103233
      1.095590     1.087946     1.080303     1.072660     1.065017     1.057374     1.049731     1.042088     1.034445     1.026802
      1.019158     1.011515     1.003872     0.996229     0.988586     0.980943     0.973300     0.965657     0.958014     0.950371
      0.942727     0.935084     0.927441     0.919798     0.912155     0.904512     0.896869     0.889226     0.881583     0.873940
      0.866296     0.858653     0.851010     0.843367     0.835724     0.828081     0.820438     0.812795     0.805152     0.797508
      0.789865     0.782222     0.774579     0.766936     0.759293     0.751650     0.744007     0.736364     0.728721     0.721077
      0.713434     0.705791     0.698148     0.690505     0.682862     0.675219     0.667576     0.659933     0.652290     0.644646
      0.637003     0.629360     0.621717     0.614074     0.606431     0.598788     0.591145     0.583502     0.575858     0.568215
      0.560572     0.552929     0.545286     0.537643     0.530000     0.522357     0.514714     0.507071     0.499427     0.491784
      0.484141     0.476498     0.468855     0.461212     0.453569     0.445925     0.438282     0.430639     0.422996     0.415353
      0.407710     0.400067     0.392424     0.384780     0.377137     0.369494     0.361851     0.354208     0.346565     0.338922
      0.331278     0.323635     0.315992     0.308349     0.300706     0.293063     0.285420     0.277777     0.270133     0.262490
      0.254847     0.247204     0.239561     0.231918     0.224275     0.216631     0.208988     0.201345
 NY phased data points follow
  -7.26433E+01 -6.91809E+01 -6.78942E+01 -6.31716E+01 -5.85855E+01 -5.25069E+01 -3.66742E+01 -3.16648E+01 -2.26584E+01 -1.46488E+01
  -1.75887E+01 -1.62152E+01 -2.50804E+01 -3.00861E+01 -3.85212E+01 -5.20735E+01 -5.40760E+01 -5.41804E+01 -5.71138E+01 -5.47715E+01
  -5.22416E+01 -5.33229E+01 -5.28825E+01 -4.80902E+01 -4.55200E+01 -4.60067E+01 -4.17620E+01 -3.84214E+01 -4.10258E+01 -4.25352E+01
  -3.82510E+01 -3.55529E+01 -3.41552E+01 -3.88441E+01 -4.39173E+01 -3.94411E+01 -4.15944E+01 -3.99056E+01 -4.01420E+01 -4.01086E+01
  -3.90025E+01 -3.29785E+01 -3.61460E+01 -3.13850E+01 -3.11289E+01 -2.98591E+01 -2.74576E+01 -2.81226E+01 -2.83387E+01 -3.18562E+01
  -3.70254E+01 -3.96871E+01 -3.95977E+01 -3.69804E+01 -4.15949E+01 -3.80105E+01 -3.90926E+01 -3.76909E+01 -3.54078E+01 -3.98121E+01
  -3.90435E+01 -4.60886E+01 -4.63992E+01 -4.24278E+01 -4.64684E+01 -4.76036E+01 -4.83953E+01 -4.84421E+01 -4.74870E+01 -4.10682E+01
  -4.44696E+01 -3.85743E+01 -3.71733E+01 -4.01771E+01 -4.33693E+01 -4.27151E+01 -3.58821E+01 -4.03452E+01 -3.66829E+01 -3.74711E+01
  -3.51937E+01 -3.29801E+01 -3.40428E+01 -3.10419E+01 -3.43349E+01 -3.44053E+01 -3.33352E+01 -3.48365E+01 -3.15183E+01 -3.17420E+01
  -3.20121E+01 -2.66291E+01 -2.60777E+01 -2.63068E+01 -2.26073E+01 -2.47474E+01 -2.16146E+01 -1.07529E+01 -6.22312E+00  1.15619E+01
   2.79171E+01  4.82228E+01  5.52051E+01  5.41156E+01  4.14710E+01  1.78491E+01  8.49026E+00 -5.69643E+00 -1.73745E+01 -1.80766E+01
  -1.75118E+01 -2.40041E+01 -2.95846E+01 -3.23857E+01 -2.43452E+01 -2.49400E+01 -2.44525E+01 -2.11814E+01 -2.03359E+01 -2.33383E+01
  -1.58643E+01 -1.56780E+01 -1.08286E+01 -1.63755E+00  1.34603E+01  2.84006E+01  4.70532E+01  4.83797E+01  4.27709E+01  2.40926E+01
   8.09894E+00  4.11705E+00 -1.50426E+01 -2.50161E+01 -2.00944E+01 -2.02005E+01 -2.47375E+01 -2.52719E+01 -2.53462E+01 -2.24682E+01
  -2.47280E+01 -2.17755E+01 -2.35528E+01 -2.76584E+01 -2.58981E+01 -2.27821E+01 -2.14761E+01 -2.61307E+01 -2.49382E+01 -2.53150E+01
  -1.98775E+01 -2.57442E+01 -2.68184E+01 -2.04650E+01 -2.31384E+01 -2.21074E+01 -2.51534E+01 -2.75036E+01 -1.83935E+01 -2.46228E+01
  -2.63585E+01 -2.48965E+01 -3.20950E+01 -2.91033E+01 -2.75794E+01 -2.48113E+01 -2.16485E+01 -3.01187E+01 -3.74751E+01 -3.89107E+01
  -3.51471E+01 -4.03162E+01 -4.43060E+01 -4.30046E+01 -4.02782E+01 -4.51437E+01 -4.55240E+01 -3.82078E+01 -3.80869E+01 -3.91710E+01
  -3.71139E+01 -4.30506E+01 -3.46178E+01 -3.57799E+01 -4.19046E+01 -2.90532E+01 -2.84237E+01 -3.15368E+01 -2.54853E+01 -1.84548E+01
  -1.84709E+01 -1.22417E+01 -1.13051E+01 -1.86265E+01 -2.13374E+01 -1.89226E+01 -2.33225E+01 -2.77848E+01 -3.03674E+01 -2.03582E+01
  -2.41369E+01 -2.48719E+01 -2.03569E+01 -1.96768E+01 -1.78266E+01 -2.02267E+01 -2.12176E+01 -1.93795E+01 -2.38447E+01 -3.05361E+01
  -2.36251E+01 -2.43732E+01 -2.50729E+01 -1.33003E+01 -9.53288E+00 -7.90223E+00 -2.84551E+00 -2.97526E+00 -8.75801E+00 -1.91889E+01
  -1.91302E+01 -2.22906E+01 -2.38194E+01 -1.75866E+01 -1.20823E+01 -1.43871E+01 -8.33452E+00 -7.97809E+00 -4.04470E+00 -4.10729E+00
  -1.04927E+01 -8.87403E+00 -5.35106E+00 -1.18869E+01 -7.37574E+00 -4.00444E+00 -2.03380E+00 -4.28905E+00 -8.27261E+00 -7.47043E+00
  -1.53020E+01 -1.14469E+01 -1.33062E+01 -7.57401E+00 -1.19109E+01 -6.99213E+00  4.71718E+00  1.31467E+00  6.15118E+00  7.46175E+00
   9.11289E+00  1.62023E+01  1.94193E+01  3.30746E+01  4.67600E+01  5.41429E+01  6.64612E+01  7.37441E+01  8.58717E+01  1.07794E+02
   1.23115E+02  1.14541E+02  8.30341E+01  5.78716E+01  3.67857E+01  1.94370E+01  9.83820E+00  2.72618E+00 -2.60159E+00 -5.04868E+00
   5.07193E+00 -2.95064E+00 -2.67867E+00  1.72613E+00 -2.06464E+00 -1.13436E+00 -3.31479E+00 -2.79839E+00 -5.29094E+00 -4.64781E+00
  -6.96932E+00 -5.62034E+00 -1.00186E+01 -9.66718E+00 -7.14449E+00 -6.39612E+00 -2.71197E+00  8.46112E-01 -5.57827E+00 -3.45559E+00
  -2.59658E+00 -3.47242E+00  2.09607E+00 -2.86669E+00 -3.71989E-02 -3.23856E+00  4.28041E-01 -2.81320E+00 -3.03526E+00 -6.65892E-01
  -1.24684E+00  4.21174E+00  2.84656E+00 -5.08893E-03  1.58906E+00  5.69072E+00  9.52266E-01  4.16889E+00  2.75494E+00  2.81427E+00
   2.71438E-01  9.71474E-01 -2.69171E+00  1.06074E+00  1.52035E+00  6.99466E-01 -3.17635E+00 -4.02171E+00 -3.30422E+00 -5.36044E+00
  -3.82054E+00 -4.43054E+00 -4.59005E+00 -6.39109E+00 -6.40207E+00 -5.11081E-02 -7.43155E-01 -7.88665E-01 -3.95919E+00  6.91031E-02
  -7.85232E+00 -5.96310E+00 -3.33886E+00 -3.84005E+00 -2.34242E+00 -1.08081E+00 -2.49603E+00  2.66189E+00 -3.52613E+00 -3.21639E+00
   2.29384E+00 -1.86540E+00  1.32006E+00  2.09021E+00  2.26917E+00  3.01003E+00  6.07711E+00  7.26359E+00  6.30986E+00  8.89515E+00
   6.89138E+00  2.47758E+00  3.60641E+00  4.60122E+00  8.40701E+00  5.85342E+00  2.91457E+00 -1.66148E+00 -3.39985E+00 -5.38420E-01
  -5.57354E+00  3.41849E-02 -2.53118E+00 -5.15345E+00 -1.70533E+00 -5.90260E+00 -4.51417E+00 -1.43208E+00 -3.52924E+00 -1.25878E+00
  -1.94532E+00  3.87165E+00 -3.18976E-01  2.38289E+00 -2.29115E-02 -2.69614E+00 -4.40084E+00  3.72175E+00 -4.94076E+00 -1.02408E+01
  -1.68391E+00 -8.59730E+00 -8.09484E+00 -6.68799E+00 -1.31474E+01 -1.54259E+01 -8.51566E+00 -1.20162E+01 -1.27552E+01 -6.83366E+00
  -1.09302E+01 -1.18550E+01 -7.04196E+00 -7.30019E+00 -7.50370E+00 -2.74642E+00 -5.18480E+00 -4.91273E+00 -4.47194E+00 -5.55791E+00
  -3.92928E+00 -3.43434E+00  6.54773E-01  4.43557E-01  1.27435E+00  9.58058E+00  5.52850E+00  1.07297E+01  9.17474E+00  7.09885E+00
   6.43343E+00  1.94155E+00 -1.88494E+00 -2.52526E-01 -2.63965E+00 -5.65960E+00 -5.14887E+00 -7.64396E+00 -4.29825E+00 -5.39501E+00
  -1.07805E+01 -6.54164E+00 -7.07398E+00 -1.03075E+01 -1.73069E+00 -5.55315E+00 -1.03961E+01 -9.48810E+00 -7.05253E+00 -7.53151E+00
  -4.44844E+00 -1.18284E+01 -9.95401E+00 -1.00357E+01 -6.04874E+00 -5.95813E+00 -7.09825E+00 -6.77725E+00 -5.03921E+00 -6.22689E+00
  -7.57784E+00 -7.63238E+00 -2.39389E+00 -4.98095E+00 -4.99510E+00 -5.57063E+00 -1.07071E+01 -4.39870E+00 -4.60072E+00 -7.08942E+00
  -7.23538E+00 -6.37012E+00 -6.32895E+00 -1.92130E+00 -6.38359E+00 -6.37269E+00 -5.17449E+00 -5.60768E+00 -9.82631E+00 -5.00534E+00
  -3.84203E+00 -2.37113E+00 -7.88672E+00 -8.50546E+00 -1.00239E+01  7.78544E-02 -4.52396E+00 -8.49861E+00 -4.07443E+00 -6.50897E+00
   8.95394E-01  3.21823E+00  6.17252E-01 -5.46607E+00 -1.24022E+00 -6.07707E+00  1.67223E+00 -1.07715E+00 -4.96497E+00 -2.38906E+00
  -3.42591E+00 -1.13015E-01 -3.15463E+00 -3.92883E+00 -3.53865E+00 -7.51194E+00 -3.86010E+00 -3.63455E+00 -2.90943E+00 -4.73017E+00
   2.28966E+00 -4.09679E+00 -5.77490E+00 -4.03562E+00 -5.11344E+00 -3.44930E+00 -6.52374E+00 -6.09438E+00
 NY points of the fit to the data follow
  -6.57538E+01 -6.49624E+01 -6.35139E+01 -6.04702E+01 -5.57197E+01 -4.93820E+01 -4.12348E+01 -3.17411E+01 -2.23666E+01 -1.57932E+01
  -1.43562E+01 -1.82883E+01 -2.55910E+01 -3.35667E+01 -4.03471E+01 -4.52854E+01 -4.86155E+01 -5.06933E+01 -5.18968E+01 -5.24728E+01
  -5.26759E+01 -5.27768E+01 -5.29336E+01 -5.27117E+01 -5.14574E+01 -4.97221E+01 -4.73969E+01 -4.39933E+01 -3.97739E+01 -3.59540E+01
  -3.39392E+01 -3.39190E+01 -3.51916E+01 -3.70812E+01 -3.94049E+01 -4.19481E+01 -4.42325E+01 -4.58428E+01 -4.66270E+01 -4.65136E+01
  -4.52768E+01 -4.31464E+01 -4.08039E+01 -3.85223E+01 -3.61318E+01 -3.37676E+01 -3.21756E+01 -3.21357E+01 -3.36282E+01 -3.58709E+01
  -3.80632E+01 -3.98190E+01 -4.09815E+01 -4.14340E+01 -4.12786E+01 -4.06851E+01 -3.98481E+01 -3.88985E+01 -3.80048E+01 -3.74727E+01
  -3.75300E+01 -3.81250E+01 -3.89740E+01 -3.97075E+01 -4.00739E+01 -3.99208E+01 -3.93309E+01 -3.85130E+01 -3.76424E+01 -3.68162E+01
  -3.61240E+01 -3.56799E+01 -3.55353E+01 -3.56142E+01 -3.57530E+01 -3.58236E+01 -3.58006E+01 -3.56946E+01 -3.55279E+01 -3.52885E+01
  -3.49007E+01 -3.43567E+01 -3.38355E+01 -3.32654E+01 -3.26295E+01 -3.21497E+01 -3.21164E+01 -3.25511E+01 -3.31222E+01 -3.34007E+01
  -3.31848E+01 -3.26406E+01 -3.19421E+01 -3.11680E+01 -3.02895E+01 -2.88238E+01 -2.45457E+01 -1.57959E+01 -4.41623E+00  1.04181E+01
   2.91612E+01  4.77160E+01  5.83255E+01  5.55188E+01  4.10348E+01  2.20647E+01  4.98368E+00 -8.07211E+00 -1.72458E+01 -2.30439E+01
  -2.61064E+01 -2.71808E+01 -2.74803E+01 -2.75347E+01 -2.74949E+01 -2.73927E+01 -2.72426E+01 -2.70528E+01 -2.67550E+01 -2.61302E+01
  -2.42017E+01 -1.83224E+01 -9.59924E+00  1.06347E+00  1.50474E+01  3.12774E+01  4.43456E+01  4.79185E+01  4.02079E+01  2.56318E+01
   1.07345E+01 -1.21275E+00 -1.03275E+01 -1.72153E+01 -2.23134E+01 -2.54183E+01 -2.67974E+01 -2.69108E+01 -2.60279E+01 -2.46012E+01
  -2.32075E+01 -2.23203E+01 -2.21080E+01 -2.24488E+01 -2.30657E+01 -2.37110E+01 -2.42762E+01 -2.47471E+01 -2.52022E+01 -2.56531E+01
  -2.60942E+01 -2.65365E+01 -2.69095E+01 -2.71116E+01 -2.70762E+01 -2.69209E+01 -2.68173E+01 -2.69183E+01 -2.74225E+01 -2.82480E+01
  -2.91497E+01 -2.97482E+01 -2.96961E+01 -2.91883E+01 -2.88168E+01 -2.90102E+01 -2.97975E+01 -3.08148E+01 -3.16333E+01 -3.21154E+01
  -3.23844E+01 -3.26821E+01 -3.30696E+01 -3.36718E+01 -3.43898E+01 -3.49265E+01 -3.49331E+01 -3.42821E+01 -3.34928E+01 -3.31691E+01
  -3.32832E+01 -3.33870E+01 -3.30563E+01 -3.22314E+01 -3.12869E+01 -3.02856E+01 -2.88039E+01 -2.65913E+01 -2.38361E+01 -2.11870E+01
  -1.94657E+01 -1.90855E+01 -1.99340E+01 -2.14023E+01 -2.28844E+01 -2.39689E+01 -2.43968E+01 -2.40055E+01 -2.27571E+01 -2.10044E+01
  -1.91525E+01 -1.74397E+01 -1.60628E+01 -1.52049E+01 -1.53729E+01 -1.66961E+01 -1.88983E+01 -2.16080E+01 -2.41406E+01 -2.56796E+01
  -2.56676E+01 -2.40531E+01 -2.13344E+01 -1.76800E+01 -1.35469E+01 -1.01154E+01 -8.95075E+00 -1.07054E+01 -1.44521E+01 -1.86799E+01
  -2.24735E+01 -2.51377E+01 -2.57251E+01 -2.36886E+01 -1.96786E+01 -1.52501E+01 -1.17560E+01 -9.59127E+00 -8.64351E+00 -8.64237E+00
  -9.08242E+00 -9.15196E+00 -8.37966E+00 -6.98186E+00 -5.45938E+00 -4.31872E+00 -3.86738E+00 -4.35484E+00 -5.65206E+00 -7.25151E+00
  -8.59334E+00 -9.24409E+00 -8.81347E+00 -7.14206E+00 -4.64118E+00 -2.09509E+00 -1.43839E-01  1.08550E+00  2.05489E+00  4.13784E+00
   8.02357E+00  1.31202E+01  2.02174E+01  2.97432E+01  4.23278E+01  5.70843E+01  6.82250E+01  7.83890E+01  9.26315E+01  1.08847E+02
   1.17141E+02  1.09472E+02  8.76610E+01  6.13273E+01  3.87803E+01  2.19338E+01  1.00417E+01  2.42449E+00 -1.71361E+00 -3.16768E+00
  -3.70497E+00 -3.93162E+00 -3.96686E+00 -3.92154E+00 -3.95388E+00 -4.15883E+00 -4.49019E+00 -4.81742E+00 -5.08512E+00 -5.27444E+00
  -5.37151E+00 -5.36563E+00 -5.27944E+00 -5.16965E+00 -5.09005E+00 -5.02490E+00 -4.94049E+00 -4.82319E+00 -4.64544E+00 -4.36607E+00
  -3.96598E+00 -3.47235E+00 -2.95619E+00 -2.46777E+00 -2.01098E+00 -1.58406E+00 -1.18601E+00 -8.05886E-01 -4.24804E-01 -3.12501E-02
   3.60673E-01  7.16528E-01  1.00477E+00  1.20707E+00  1.31335E+00  1.32055E+00  1.23257E+00  1.05849E+00  8.11826E-01  5.05552E-01
   1.53314E-01 -2.30557E-01 -6.31051E-01 -1.03279E+00 -1.42080E+00 -1.78143E+00 -2.10290E+00 -2.37470E+00 -2.58678E+00 -2.72770E+00
  -2.77852E+00 -2.70599E+00 -2.55938E+00 -2.41396E+00 -2.25525E+00 -2.14460E+00 -2.22559E+00 -2.59479E+00 -3.17669E+00 -3.69783E+00
  -3.89425E+00 -3.77307E+00 -3.37577E+00 -2.67958E+00 -1.71663E+00 -6.71478E-01  1.95551E-01  7.35001E-01  1.00576E+00  1.14826E+00
   1.25289E+00  1.35787E+00  1.48374E+00  1.64088E+00  1.83397E+00  2.04162E+00  2.24818E+00  2.44421E+00  2.62197E+00  2.77445E+00
   2.89517E+00  2.97829E+00  3.01854E+00  3.01127E+00  2.95251E+00  2.83937E+00  2.67030E+00  2.44525E+00  2.16548E+00  1.83342E+00
   1.45259E+00  1.02772E+00  5.64572E-01  6.97826E-02 -4.49695E-01 -9.86794E-01 -1.53452E+00 -2.08591E+00 -2.63425E+00 -3.17329E+00
  -3.69758E+00 -4.20238E+00 -4.68368E+00 -5.13791E+00 -5.56207E+00 -5.95371E+00 -6.31106E+00 -6.63264E+00 -6.91718E+00 -7.16328E+00
  -7.36950E+00 -7.53432E+00 -7.65608E+00 -7.73269E+00 -7.76152E+00 -7.73935E+00 -7.66261E+00 -7.52749E+00 -7.33016E+00 -7.06679E+00
  -6.73394E+00 -6.32896E+00 -5.85076E+00 -5.30019E+00 -4.68061E+00 -3.99811E+00 -3.26196E+00 -2.48484E+00 -1.68299E+00 -8.75756E-01
  -8.50388E-02  6.65727E-01  1.35247E+00  1.95172E+00  2.44174E+00  2.80405E+00  3.02460E+00  3.09478E+00  3.01177E+00  2.77868E+00
   2.40442E+00  1.90332E+00  1.29417E+00  5.99132E-01 -1.57833E-01 -9.52246E-01 -1.76044E+00 -2.56047E+00 -3.33307E+00 -4.06225E+00
  -4.73580E+00 -5.34524E+00 -5.88566E+00 -6.35513E+00 -6.75439E+00 -7.08628E+00 -7.35534E+00 -7.56714E+00 -7.72777E+00 -7.84333E+00
  -7.91983E+00 -7.96292E+00 -7.97790E+00 -7.96943E+00 -7.94154E+00 -7.89758E+00 -7.84044E+00 -7.77253E+00 -7.69598E+00 -7.61244E+00
  -7.52326E+00 -7.42944E+00 -7.33190E+00 -7.23145E+00 -7.12882E+00 -7.02452E+00 -6.91898E+00 -6.81250E+00 -6.70550E+00 -6.59833E+00
  -6.49134E+00 -6.38474E+00 -6.27870E+00 -6.17336E+00 -6.06887E+00 -5.96530E+00 -5.86276E+00 -5.76118E+00 -5.66057E+00 -5.56093E+00
  -5.46238E+00 -5.36494E+00 -5.26863E+00 -5.17336E+00 -5.07911E+00 -4.98592E+00 -4.89386E+00 -4.80294E+00 -4.71312E+00 -4.62432E+00
  -4.53654E+00 -4.44980E+00 -4.36419E+00 -4.27964E+00 -4.19610E+00 -4.11349E+00 -4.03186E+00 -3.95123E+00 -3.87165E+00 -3.79303E+00
  -3.71532E+00 -3.63845E+00 -3.56250E+00 -3.48747E+00 -3.41336E+00 -3.34007E+00 -3.26755E+00 -3.19577E+00 -3.12480E+00 -3.05462E+00
  -2.98521E+00 -2.91643E+00 -2.84827E+00 -2.78070E+00 -2.71379E+00 -2.64747E+00 -2.58166E+00 -2.51624E+00
 NY background values follow
    -6.889E+01   -6.840E+01   -6.791E+01   -6.741E+01   -6.692E+01   -6.643E+01   -6.595E+01   -6.546E+01   -6.498E+01   -6.449E+01
    -6.401E+01   -6.353E+01   -6.306E+01   -6.258E+01   -6.211E+01   -6.164E+01   -6.117E+01   -6.070E+01   -6.024E+01   -5.978E+01
    -5.932E+01   -5.886E+01   -5.841E+01   -5.795E+01   -5.750E+01   -5.706E+01   -5.661E+01   -5.617E+01   -5.573E+01   -5.529E+01
    -5.486E+01   -5.443E+01   -5.400E+01   -5.358E+01   -5.315E+01   -5.274E+01   -5.232E+01   -5.191E+01   -5.150E+01   -5.109E+01
    -5.069E+01   -5.029E+01   -4.989E+01   -4.950E+01   -4.911E+01   -4.873E+01   -4.834E+01   -4.797E+01   -4.759E+01   -4.722E+01
    -4.685E+01   -4.649E+01   -4.613E+01   -4.577E+01   -4.542E+01   -4.507E+01   -4.472E+01   -4.438E+01   -4.404E+01   -4.370E+01
    -4.337E+01   -4.304E+01   -4.272E+01   -4.239E+01   -4.207E+01   -4.176E+01   -4.145E+01   -4.114E+01   -4.083E+01   -4.053E+01
    -4.023E+01   -3.993E+01   -3.963E+01   -3.934E+01   -3.906E+01   -3.877E+01   -3.849E+01   -3.821E+01   -3.794E+01   -3.766E+01
    -3.739E+01   -3.713E+01   -3.686E+01   -3.660E+01   -3.635E+01   -3.609E+01   -3.584E+01   -3.559E+01   -3.534E+01   -3.510E+01
    -3.486E+01   -3.462E+01   -3.439E+01   -3.416E+01   -3.393E+01   -3.370E+01   -3.348E+01   -3.326E+01   -3.304E+01   -3.283E+01
    -3.262E+01   -3.241E+01   -3.221E+01   -3.201E+01   -3.181E+01   -3.162E+01   -3.143E+01   -3.125E+01   -3.107E+01   -3.089E+01
    -3.072E+01   -3.055E+01   -3.039E+01   -3.023E+01   -3.008E+01   -2.993E+01   -2.978E+01   -2.964E+01   -2.950E+01   -2.937E+01
    -2.925E+01   -2.913E+01   -2.901E+01   -2.890E+01   -2.879E+01   -2.869E+01   -2.860E+01   -2.851E+01   -2.842E+01   -2.834E+01
    -2.827E+01   -2.820E+01   -2.814E+01   -2.809E+01   -2.804E+01   -2.799E+01   -2.796E+01   -2.792E+01   -2.790E+01   -2.788E+01
    -2.786E+01   -2.785E+01   -2.784E+01   -2.784E+01   -2.784E+01   -2.785E+01   -2.785E+01   -2.786E+01   -2.788E+01   -2.789E+01
    -2.791E+01   -2.793E+01   -2.795E+01   -2.797E+01   -2.799E+01   -2.801E+01   -2.803E+01   -2.805E+01   -2.807E+01   -2.808E+01
    -2.810E+01   -2.812E+01   -2.813E+01   -2.814E+01   -2.814E+01   -2.815E+01   -2.815E+01   -2.815E+01   -2.814E+01   -2.813E+01
    -2.811E+01   -2.809E+01   -2.806E+01   -2.803E+01   -2.799E+01   -2.795E+01   -2.790E+01   -2.784E+01   -2.777E+01   -2.770E+01
    -2.762E+01   -2.753E+01   -2.743E+01   -2.732E+01   -2.721E+01   -2.708E+01   -2.695E+01   -2.682E+01   -2.667E+01   -2.652E+01
    -2.636E+01   -2.620E+01   -2.603E+01   -2.585E+01   -2.567E+01   -2.548E+01   -2.529E+01   -2.509E+01   -2.489E+01   -2.468E+01
    -2.447E+01   -2.426E+01   -2.404E+01   -2.382E+01   -2.359E+01   -2.336E+01   -2.313E+01   -2.290E+01   -2.266E+01   -2.242E+01
    -2.218E+01   -2.194E+01   -2.170E+01   -2.145E+01   -2.121E+01   -2.096E+01   -2.071E+01   -2.046E+01   -2.022E+01   -1.997E+01
    -1.972E+01   -1.948E+01   -1.923E+01   -1.899E+01   -1.874E+01   -1.850E+01   -1.826E+01   -1.803E+01   -1.779E+01   -1.756E+01
    -1.733E+01   -1.710E+01   -1.687E+01   -1.665E+01   -1.643E+01   -1.621E+01   -1.599E+01   -1.578E+01   -1.556E+01   -1.535E+01
    -1.515E+01   -1.494E+01   -1.474E+01   -1.454E+01   -1.434E+01   -1.415E+01   -1.395E+01   -1.377E+01   -1.358E+01   -1.340E+01
    -1.321E+01   -1.304E+01   -1.286E+01   -1.269E+01   -1.252E+01   -1.235E+01   -1.219E+01   -1.203E+01   -1.187E+01   -1.172E+01
    -1.157E+01   -1.142E+01   -1.128E+01   -1.113E+01   -1.100E+01   -1.086E+01   -1.073E+01   -1.060E+01   -1.048E+01   -1.036E+01
    -1.024E+01   -1.012E+01   -1.001E+01   -9.907E+00   -9.803E+00   -9.703E+00   -9.606E+00   -9.512E+00   -9.422E+00   -9.336E+00
    -9.252E+00   -9.172E+00   -9.095E+00   -9.021E+00   -8.951E+00   -8.884E+00   -8.820E+00   -8.759E+00   -8.701E+00   -8.646E+00
    -8.594E+00   -8.545E+00   -8.499E+00   -8.457E+00   -8.417E+00   -8.380E+00   -8.345E+00   -8.314E+00   -8.285E+00   -8.260E+00
    -8.237E+00   -8.216E+00   -8.199E+00   -8.184E+00   -8.172E+00   -8.162E+00   -8.155E+00   -8.151E+00   -8.149E+00   -8.149E+00
    -8.152E+00   -8.158E+00   -8.166E+00   -8.176E+00   -8.189E+00   -8.204E+00   -8.221E+00   -8.241E+00   -8.263E+00   -8.287E+00
    -8.313E+00   -8.341E+00   -8.372E+00   -8.404E+00   -8.437E+00   -8.473E+00   -8.511E+00   -8.550E+00   -8.590E+00   -8.632E+00
    -8.676E+00   -8.721E+00   -8.767E+00   -8.814E+00   -8.863E+00   -8.913E+00   -8.963E+00   -9.015E+00   -9.068E+00   -9.122E+00
    -9.176E+00   -9.231E+00   -9.287E+00   -9.343E+00   -9.400E+00   -9.457E+00   -9.515E+00   -9.573E+00   -9.631E+00   -9.689E+00
    -9.748E+00   -9.806E+00   -9.865E+00   -9.924E+00   -9.982E+00   -1.004E+01   -1.010E+01   -1.016E+01   -1.021E+01   -1.027E+01
    -1.033E+01   -1.038E+01   -1.044E+01   -1.049E+01   -1.054E+01   -1.060E+01   -1.065E+01   -1.070E+01   -1.075E+01   -1.080E+01
    -1.084E+01   -1.089E+01   -1.093E+01   -1.098E+01   -1.102E+01   -1.106E+01   -1.109E+01   -1.113E+01   -1.116E+01   -1.120E+01
    -1.123E+01   -1.125E+01   -1.128E+01   -1.130E+01   -1.132E+01   -1.134E+01   -1.136E+01   -1.137E+01   -1.138E+01   -1.139E+01
    -1.139E+01   -1.139E+01   -1.139E+01   -1.139E+01   -1.138E+01   -1.137E+01   -1.136E+01   -1.134E+01   -1.132E+01   -1.130E+01
    -1.127E+01   -1.124E+01   -1.120E+01   -1.116E+01   -1.112E+01   -1.107E+01   -1.102E+01   -1.096E+01   -1.091E+01   -1.084E+01
    -1.077E+01   -1.070E+01   -1.063E+01   -1.055E+01   -1.047E+01   -1.038E+01   -1.029E+01   -1.020E+01   -1.011E+01   -1.001E+01
    -9.911E+00   -9.809E+00   -9.705E+00   -9.598E+00   -9.489E+00   -9.378E+00   -9.265E+00   -9.151E+00   -9.035E+00   -8.917E+00
    -8.799E+00   -8.678E+00   -8.557E+00   -8.435E+00   -8.312E+00   -8.189E+00   -8.064E+00   -7.940E+00   -7.815E+00   -7.689E+00
    -7.564E+00   -7.439E+00   -7.314E+00   -7.189E+00   -7.065E+00   -6.941E+00   -6.818E+00   -6.696E+00   -6.575E+00   -6.455E+00
    -6.336E+00   -6.219E+00   -6.103E+00   -5.988E+00   -5.875E+00   -5.764E+00   -5.654E+00   -5.546E+00   -5.439E+00   -5.334E+00
    -5.230E+00   -5.128E+00   -5.026E+00   -4.927E+00   -4.829E+00   -4.732E+00   -4.636E+00   -4.542E+00   -4.449E+00   -4.357E+00
    -4.267E+00   -4.177E+00   -4.090E+00   -4.003E+00   -3.917E+00   -3.833E+00   -3.750E+00   -3.667E+00   -3.587E+00   -3.507E+00
    -3.428E+00   -3.350E+00   -3.273E+00   -3.198E+00   -3.123E+00   -3.049E+00   -2.977E+00   -2.905E+00   -2.834E+00   -2.764E+00
    -2.695E+00   -2.627E+00   -2.559E+00   -2.493E+00   -2.427E+00   -2.362E+00   -2.298E+00   -2.235E+00
 Ala      Conc. = 1.15E+02
