 LCModel (Version 6.3-1L) Copyright: S.W. Provencher.          Ref.: Magn. Reson. Med. 30:672-679 (1993).                
 Slice#3 Row#8 Col#13  K_02_press_1_raw_act
 36 lines in following concentration table = NCONC+1
    Conc.  %SD /Cr+PCr  Metabolite                                         
    0.000 999%   0.000 Ala                                                 
   41.534  84%   1.166 Asp                                                 
   35.615  45%   1.000 Cr                                                  
    0.000 999%   0.000 PCr                                                 
   17.940 116%   0.504 GABA                                                
   10.222 207%   0.287 Glc                                                 
   47.828 121%   1.343 Gln                                                 
  243.631  28%   6.841 Glu                                                 
    0.000 999%   0.000 GPC                                                 
   19.033  32%   0.534 PCh                                                 
    0.000 999%   0.000 GSH                                                 
  102.863  68%   2.888 Ins                                                 
    0.000 999%   0.000 Lac                                                 
  477.098   8%  13.396 NAA                                                 
   97.563  35%   2.739 NAAG                                                
    4.841 119%   0.136 Scyllo                                              
   28.513 115%   0.801 Tau                                                 
    7.017 119%   0.197 -CrCH2                                              
   19.033  32%   0.534 GPC+PCh                                             
  574.661   6%  16.136 NAA+NAAG                                            
   35.615  45%   1.000 Cr+PCr                                              
  291.459  29%   8.184 Glu+Gln                                             
 2.74E+04   7% 768.955 Lip13a                                              
    0.000 999%   0.000 Lip13b                                              
 4.89E+03  15% 137.265 Lip09                                               
 1.02E+03  32%  28.692 MM09                                                
 1.02E+03  31%  28.671 Lip20                                               
  883.691  29%  24.813 MM20                                                
    0.000 999%   0.000 MM12                                                
 2.90E+03  30%  81.412 MM14                                                
 1.71E+03  24%  48.094 MM17                                                
 2.74E+04   7% 768.955 Lip13a+Lip13b                                       
 3.03E+04   5% 850.368 MM14+Lip13a+Lip13b+MM12                             
 5.91E+03  11% 165.958 MM09+Lip09                                          
 1.90E+03  14%  53.484 MM20+Lip20                                          
   6 lines in following misc. output table
  FWHM = 0.038 ppm    S/N =  23                                            
  Data shift =-0.015 ppm                                                   
  Ph:-120 deg     -46.1 deg/ppm                                            
  alphaB,S = 8.5E+01,   1.3E+01                                            
   14 spline knots.   Ns = 5(1)                                            
  ( 7) 2 infls.   ( 5) 1 extrs.                                            
  498 points on ppm-axis = NY
      4.000000     3.992357     3.984714     3.977070     3.969427     3.961784     3.954141     3.946497     3.938854     3.931211
      3.923568     3.915925     3.908281     3.900638     3.892995     3.885352     3.877708     3.870065     3.862422     3.854779
      3.847136     3.839492     3.831849     3.824206     3.816563     3.808919     3.801276     3.793633     3.785990     3.778347
      3.770703     3.763060     3.755417     3.747774     3.740130     3.732487     3.724844     3.717201     3.709558     3.701914
      3.694271     3.686628     3.678985     3.671341     3.663698     3.656055     3.648412     3.640769     3.633125     3.625482
      3.617839     3.610196     3.602552     3.594909     3.587266     3.579623     3.571980     3.564336     3.556693     3.549050
      3.541407     3.533763     3.526120     3.518477     3.510834     3.503191     3.495547     3.487904     3.480261     3.472618
      3.464974     3.457331     3.449688     3.442045     3.434402     3.426758     3.419115     3.411472     3.403829     3.396185
      3.388542     3.380899     3.373256     3.365613     3.357969     3.350326     3.342683     3.335040     3.327396     3.319753
      3.312110     3.304467     3.296824     3.289180     3.281537     3.273894     3.266251     3.258607     3.250964     3.243321
      3.235678     3.228034     3.220391     3.212748     3.205105     3.197462     3.189818     3.182175     3.174532     3.166889
      3.159245     3.151602     3.143959     3.136316     3.128673     3.121029     3.113386     3.105743     3.098100     3.090456
      3.082813     3.075170     3.067527     3.059884     3.052240     3.044597     3.036954     3.029311     3.021667     3.014024
      3.006381     2.998738     2.991095     2.983451     2.975808     2.968165     2.960522     2.952878     2.945235     2.937592
      2.929949     2.922306     2.914662     2.907019     2.899376     2.891733     2.884089     2.876446     2.868803     2.861160
      2.853517     2.845873     2.838230     2.830587     2.822944     2.815300     2.807657     2.800014     2.792371     2.784728
      2.777084     2.769441     2.761798     2.754155     2.746511     2.738868     2.731225     2.723582     2.715939     2.708295
      2.700652     2.693009     2.685366     2.677722     2.670079     2.662436     2.654793     2.647150     2.639506     2.631863
      2.624220     2.616577     2.608933     2.601290     2.593647     2.586004     2.578361     2.570717     2.563074     2.555431
      2.547788     2.540144     2.532501     2.524858     2.517215     2.509572     2.501928     2.494285     2.486642     2.478999
      2.471355     2.463712     2.456069     2.448426     2.440783     2.433139     2.425496     2.417853     2.410210     2.402566
      2.394923     2.387280     2.379637     2.371994     2.364350     2.356707     2.349064     2.341421     2.333777     2.326134
      2.318491     2.310848     2.303205     2.295561     2.287918     2.280275     2.272632     2.264988     2.257345     2.249702
      2.242059     2.234416     2.226772     2.219129     2.211486     2.203843     2.196199     2.188556     2.180913     2.173270
      2.165627     2.157983     2.150340     2.142697     2.135054     2.127410     2.119767     2.112124     2.104481     2.096838
      2.089194     2.081551     2.073908     2.066265     2.058621     2.050978     2.043335     2.035692     2.028049     2.020405
      2.012762     2.005119     1.997476     1.989833     1.982190     1.974546     1.966903     1.959260     1.951617     1.943974
      1.936331     1.928688     1.921045     1.913402     1.905759     1.898115     1.890472     1.882829     1.875186     1.867543
      1.859900     1.852257     1.844614     1.836971     1.829327     1.821684     1.814041     1.806398     1.798755     1.791112
      1.783469     1.775826     1.768183     1.760540     1.752896     1.745253     1.737610     1.729967     1.722324     1.714681
      1.707038     1.699395     1.691752     1.684108     1.676465     1.668822     1.661179     1.653536     1.645893     1.638250
      1.630607     1.622964     1.615321     1.607677     1.600034     1.592391     1.584748     1.577105     1.569462     1.561819
      1.554176     1.546533     1.538890     1.531246     1.523603     1.515960     1.508317     1.500674     1.493031     1.485388
      1.477745     1.470102     1.462458     1.454815     1.447172     1.439529     1.431886     1.424243     1.416600     1.408957
      1.401314     1.393671     1.386027     1.378384     1.370741     1.363098     1.355455     1.347812     1.340169     1.332526
      1.324883     1.317240     1.309596     1.301953     1.294310     1.286667     1.279024     1.271381     1.263738     1.256095
      1.248452     1.240808     1.233165     1.225522     1.217879     1.210236     1.202593     1.194950     1.187307     1.179664
      1.172021     1.164377     1.156734     1.149091     1.141448     1.133805     1.126162     1.118519     1.110876     1.103233
      1.095590     1.087946     1.080303     1.072660     1.065017     1.057374     1.049731     1.042088     1.034445     1.026802
      1.019158     1.011515     1.003872     0.996229     0.988586     0.980943     0.973300     0.965657     0.958014     0.950371
      0.942727     0.935084     0.927441     0.919798     0.912155     0.904512     0.896869     0.889226     0.881583     0.873940
      0.866296     0.858653     0.851010     0.843367     0.835724     0.828081     0.820438     0.812795     0.805152     0.797508
      0.789865     0.782222     0.774579     0.766936     0.759293     0.751650     0.744007     0.736364     0.728721     0.721077
      0.713434     0.705791     0.698148     0.690505     0.682862     0.675219     0.667576     0.659933     0.652290     0.644646
      0.637003     0.629360     0.621717     0.614074     0.606431     0.598788     0.591145     0.583502     0.575858     0.568215
      0.560572     0.552929     0.545286     0.537643     0.530000     0.522357     0.514714     0.507071     0.499427     0.491784
      0.484141     0.476498     0.468855     0.461212     0.453569     0.445925     0.438282     0.430639     0.422996     0.415353
      0.407710     0.400067     0.392424     0.384780     0.377137     0.369494     0.361851     0.354208     0.346565     0.338922
      0.331278     0.323635     0.315992     0.308349     0.300706     0.293063     0.285420     0.277777     0.270133     0.262490
      0.254847     0.247204     0.239561     0.231918     0.224275     0.216631     0.208988     0.201345
 NY phased data points follow
   7.17494E+00  9.08010E+00  6.69962E+00  5.37627E+00  5.86597E+00  5.49521E+00  5.82298E+00  7.35380E+00  4.99553E+00  4.62746E+00
   7.90802E+00  5.50834E+00  6.46338E+00  8.33790E+00  6.52860E+00  8.92956E+00  7.75937E+00  8.12329E+00  7.51732E+00  3.93979E+00
   8.26204E+00  7.27690E+00  6.13491E+00  4.83695E+00  7.76634E+00  7.54672E+00  8.86998E+00  7.22946E+00  7.49814E+00  6.33404E+00
   6.31751E+00  5.64419E+00  5.56831E+00  8.65187E+00  7.79647E+00  5.13251E+00  7.81627E+00  6.32082E+00  7.46864E+00  8.70974E+00
   8.35674E+00  1.04073E+01  7.78236E+00  1.02123E+01  8.23281E+00  8.79177E+00  1.06459E+01  1.09203E+01  1.01172E+01  7.64526E+00
   8.04122E+00  8.55599E+00  7.11286E+00  8.51753E+00  6.73433E+00  7.49128E+00  1.08069E+01  5.81188E+00  7.11903E+00  7.39669E+00
   8.43540E+00  7.23447E+00  6.36364E+00  8.23217E+00  9.47375E+00  8.32074E+00  8.58018E+00  7.99253E+00  6.78450E+00  1.03032E+01
   6.42021E+00  8.89804E+00  7.30941E+00  8.46600E+00  6.99597E+00  7.22610E+00  8.46468E+00  1.10604E+01  5.63983E+00  9.71351E+00
   1.00840E+01  6.19250E+00  6.61312E+00  9.81732E+00  7.39302E+00  8.13539E+00  7.39723E+00  8.76616E+00  8.89444E+00  7.20774E+00
   8.40659E+00  6.89770E+00  1.20538E+01  1.26002E+01  7.02835E+00  8.09692E+00  9.54665E+00  1.00233E+01  7.49584E+00  8.89183E+00
   8.13937E+00  8.23997E+00  9.38510E+00  1.05063E+01  1.22979E+01  1.10859E+01  9.62217E+00  1.10745E+01  9.72212E+00  1.00415E+01
   1.06812E+01  1.07020E+01  9.28793E+00  1.04007E+01  1.03298E+01  9.08217E+00  9.10147E+00  1.02213E+01  9.60408E+00  1.06813E+01
   1.09242E+01  8.61442E+00  1.08862E+01  1.10122E+01  8.86537E+00  1.22024E+01  1.29881E+01  1.06304E+01  1.26317E+01  1.33120E+01
   9.54074E+00  1.10909E+01  1.13772E+01  1.04415E+01  1.17738E+01  1.13802E+01  1.10783E+01  1.25383E+01  9.85950E+00  1.16110E+01
   1.06306E+01  1.14167E+01  1.08321E+01  1.30493E+01  1.28544E+01  1.23254E+01  1.20213E+01  1.16134E+01  1.30020E+01  1.19479E+01
   1.20597E+01  1.34668E+01  1.38353E+01  1.23052E+01  9.59972E+00  1.11224E+01  1.16630E+01  1.18199E+01  1.23632E+01  1.21772E+01
   1.11619E+01  1.14930E+01  1.07424E+01  1.25677E+01  1.10218E+01  1.10185E+01  1.40034E+01  1.23282E+01  1.23859E+01  9.10248E+00
   1.25991E+01  1.15187E+01  9.24734E+00  1.24091E+01  1.23141E+01  1.17047E+01  1.18237E+01  9.30760E+00  1.20820E+01  1.02418E+01
   1.15595E+01  1.01849E+01  1.36894E+01  1.18753E+01  9.52506E+00  1.10060E+01  1.05473E+01  1.26336E+01  1.20011E+01  1.05719E+01
   1.18086E+01  1.41375E+01  1.28039E+01  1.36600E+01  1.09252E+01  1.15873E+01  1.16732E+01  1.05503E+01  1.12935E+01  1.08914E+01
   9.94018E+00  1.28366E+01  1.39457E+01  1.45444E+01  1.52935E+01  1.21195E+01  1.34169E+01  1.28752E+01  1.31253E+01  1.32739E+01
   1.18557E+01  1.13594E+01  1.36322E+01  1.34869E+01  1.66781E+01  1.59480E+01  1.63470E+01  1.51116E+01  1.37703E+01  1.35735E+01
   1.48075E+01  1.38393E+01  1.08001E+01  1.43385E+01  1.37412E+01  1.39478E+01  1.41064E+01  1.71779E+01  1.51569E+01  1.72931E+01
   1.55131E+01  1.75605E+01  1.63878E+01  1.77298E+01  1.75415E+01  1.65221E+01  1.78492E+01  1.88599E+01  1.99748E+01  1.64066E+01
   1.74034E+01  1.88314E+01  1.82860E+01  1.77406E+01  1.79622E+01  1.87642E+01  2.03542E+01  2.08348E+01  1.99640E+01  2.09608E+01
   2.17456E+01  2.49828E+01  2.42301E+01  2.52079E+01  2.60597E+01  2.73485E+01  2.80407E+01  3.69466E+01  3.94796E+01  4.36351E+01
   4.68878E+01  4.27491E+01  3.65171E+01  3.19821E+01  2.83911E+01  2.44475E+01  2.43438E+01  2.36372E+01  2.09070E+01  2.09087E+01
   2.12255E+01  2.36791E+01  2.18202E+01  2.25734E+01  2.33935E+01  2.38349E+01  2.26237E+01  2.07579E+01  2.32719E+01  2.23570E+01
   2.20921E+01  2.13923E+01  2.15510E+01  2.38073E+01  2.21544E+01  2.33224E+01  2.49838E+01  2.58765E+01  2.75680E+01  2.71633E+01
   2.54488E+01  2.72466E+01  2.92780E+01  2.81876E+01  2.96756E+01  2.93565E+01  2.99877E+01  2.98111E+01  3.03349E+01  3.20573E+01
   3.37360E+01  3.41723E+01  3.46207E+01  3.37562E+01  3.67905E+01  3.67420E+01  3.80840E+01  3.77095E+01  3.91940E+01  3.65283E+01
   3.75940E+01  3.80355E+01  4.23004E+01  4.31191E+01  4.17442E+01  4.21817E+01  4.30721E+01  4.44510E+01  4.36212E+01  4.44325E+01
   4.49636E+01  4.74316E+01  5.10930E+01  4.73842E+01  4.98448E+01  5.27420E+01  5.46300E+01  5.48884E+01  5.54576E+01  5.71019E+01
   5.90891E+01  5.98551E+01  6.25040E+01  6.33641E+01  6.53558E+01  6.65354E+01  6.76769E+01  6.63844E+01  6.92361E+01  7.27754E+01
   7.22546E+01  7.40730E+01  7.49494E+01  7.86160E+01  7.88303E+01  8.04882E+01  7.89844E+01  8.02890E+01  8.22836E+01  8.12994E+01
   8.11619E+01  8.34704E+01  8.21801E+01  8.30375E+01  8.23064E+01  8.35329E+01  8.28174E+01  8.08455E+01  8.11215E+01  8.13166E+01
   8.03031E+01  8.01690E+01  8.02137E+01  7.88019E+01  7.42364E+01  7.62366E+01  7.50747E+01  7.40041E+01  7.18499E+01  7.33850E+01
   7.14913E+01  6.85449E+01  6.88035E+01  6.74375E+01  6.83192E+01  6.64464E+01  6.46735E+01  6.43886E+01  6.26623E+01  5.92035E+01
   5.99737E+01  6.13637E+01  5.73049E+01  5.74607E+01  5.65093E+01  5.33017E+01  5.25120E+01  5.47019E+01  5.73441E+01  5.54669E+01
   5.17866E+01  5.18061E+01  5.14640E+01  5.06139E+01  4.79820E+01  4.73314E+01  4.74108E+01  4.66898E+01  4.31170E+01  4.42674E+01
   4.66497E+01  4.50170E+01  4.27037E+01  4.20860E+01  4.10578E+01  4.02563E+01  4.14372E+01  3.99080E+01  3.89563E+01  3.63336E+01
   3.62463E+01  3.46164E+01  3.34586E+01  3.46264E+01  3.35503E+01  2.98545E+01  3.12773E+01  2.91128E+01  2.94363E+01  2.74135E+01
   2.77946E+01  2.77496E+01  2.69168E+01  2.66437E+01  2.43728E+01  2.44988E+01  2.41311E+01  2.29442E+01  2.44463E+01  2.13637E+01
   1.90797E+01  2.07173E+01  1.97523E+01  2.05935E+01  1.88717E+01  2.09964E+01  1.67863E+01  1.97661E+01  1.77438E+01  1.68986E+01
   1.81209E+01  1.59318E+01  1.73662E+01  1.53484E+01  1.53547E+01  1.35542E+01  1.31011E+01  1.28718E+01  1.32286E+01  1.50758E+01
   1.37642E+01  1.33077E+01  1.34518E+01  1.15596E+01  1.49262E+01  1.10946E+01  1.21673E+01  1.13113E+01  1.16577E+01  1.38406E+01
   1.08793E+01  1.24893E+01  1.15359E+01  9.00179E+00  1.02488E+01  1.18478E+01  1.06828E+01  1.10601E+01  9.38861E+00  1.04132E+01
   1.25015E+01  7.75917E+00  9.84655E+00  9.12180E+00  1.02154E+01  1.01716E+01  9.27756E+00  9.56804E+00  1.01609E+01  8.37064E+00
   1.03235E+01  7.52969E+00  7.91075E+00  8.56409E+00  7.56774E+00  1.09052E+01  8.63149E+00  8.03116E+00  8.55576E+00  1.09666E+01
   8.46149E+00  1.10800E+01  6.69029E+00  8.63608E+00  6.02481E+00  8.29566E+00  6.50574E+00  1.01898E+01
 NY points of the fit to the data follow
   6.72664E+00  6.68910E+00  6.67446E+00  6.67883E+00  6.67329E+00  6.61508E+00  6.49993E+00  6.42430E+00  6.54015E+00  6.81683E+00
   7.18495E+00  7.54128E+00  7.69847E+00  7.63482E+00  7.49722E+00  7.37146E+00  7.23296E+00  7.10531E+00  7.02545E+00  6.99845E+00
   7.03158E+00  7.13463E+00  7.29008E+00  7.47287E+00  7.58728E+00  7.54627E+00  7.35346E+00  7.03433E+00  6.73559E+00  6.69457E+00
   6.96517E+00  7.46147E+00  8.00389E+00  8.38002E+00  8.45386E+00  8.19523E+00  7.76251E+00  7.38090E+00  7.15395E+00  7.11050E+00
   7.23285E+00  7.38811E+00  7.48020E+00  7.59956E+00  7.84656E+00  8.17619E+00  8.50177E+00  8.72552E+00  8.72763E+00  8.51050E+00
   8.22297E+00  7.98417E+00  7.82847E+00  7.75555E+00  7.74010E+00  7.77472E+00  7.86105E+00  7.98065E+00  8.12930E+00  8.27280E+00
   8.35251E+00  8.34566E+00  8.27454E+00  8.18816E+00  8.12119E+00  8.10295E+00  8.12996E+00  8.17115E+00  8.22928E+00  8.29674E+00
   8.35008E+00  8.40560E+00  8.48777E+00  8.56236E+00  8.61656E+00  8.65888E+00  8.64888E+00  8.57464E+00  8.49249E+00  8.44277E+00
   8.42492E+00  8.44739E+00  8.53053E+00  8.64648E+00  8.72804E+00  8.75547E+00  8.71812E+00  8.60806E+00  8.49159E+00  8.44240E+00
   8.44923E+00  8.47037E+00  8.49576E+00  8.50720E+00  8.49660E+00  8.50029E+00  8.50980E+00  8.49598E+00  8.47217E+00  8.51266E+00
   8.89329E+00  9.57398E+00  1.03236E+01  1.09971E+01  1.12989E+01  1.10756E+01  1.06081E+01  1.02026E+01  9.86981E+00  9.62981E+00
   9.51182E+00  9.47031E+00  9.45885E+00  9.46253E+00  9.47694E+00  9.49747E+00  9.51668E+00  9.53463E+00  9.55555E+00  9.57401E+00
   9.59157E+00  9.61521E+00  9.66333E+00  9.88278E+00  1.03675E+01  1.09419E+01  1.14887E+01  1.18727E+01  1.19025E+01  1.16630E+01
   1.13978E+01  1.11775E+01  1.09980E+01  1.09039E+01  1.08792E+01  1.08977E+01  1.09440E+01  1.10038E+01  1.10657E+01  1.11193E+01
   1.11632E+01  1.12045E+01  1.12660E+01  1.13589E+01  1.14625E+01  1.15564E+01  1.16292E+01  1.16779E+01  1.17179E+01  1.17662E+01
   1.18115E+01  1.18421E+01  1.18721E+01  1.19086E+01  1.19674E+01  1.20722E+01  1.21785E+01  1.21706E+01  1.20326E+01  1.18304E+01
   1.16326E+01  1.16077E+01  1.17832E+01  1.20040E+01  1.21568E+01  1.21641E+01  1.20038E+01  1.17906E+01  1.16344E+01  1.15268E+01
   1.14691E+01  1.14331E+01  1.13031E+01  1.10601E+01  1.08624E+01  1.07744E+01  1.08145E+01  1.09442E+01  1.10174E+01  1.09606E+01
   1.08527E+01  1.08276E+01  1.09069E+01  1.09856E+01  1.10203E+01  1.10833E+01  1.11968E+01  1.14166E+01  1.17583E+01  1.20618E+01
   1.22171E+01  1.22819E+01  1.23082E+01  1.23524E+01  1.24228E+01  1.24843E+01  1.25207E+01  1.24895E+01  1.24130E+01  1.24139E+01
   1.25973E+01  1.28929E+01  1.32371E+01  1.35529E+01  1.36739E+01  1.35547E+01  1.32089E+01  1.27521E+01  1.23349E+01  1.19814E+01
   1.18226E+01  1.20221E+01  1.26253E+01  1.35382E+01  1.45059E+01  1.52607E+01  1.55438E+01  1.52790E+01  1.46244E+01  1.38184E+01
   1.31180E+01  1.27705E+01  1.29027E+01  1.35360E+01  1.44911E+01  1.53944E+01  1.60494E+01  1.64633E+01  1.66644E+01  1.67149E+01
   1.67264E+01  1.67926E+01  1.69392E+01  1.71489E+01  1.73823E+01  1.76259E+01  1.78764E+01  1.81098E+01  1.83099E+01  1.84137E+01
   1.84792E+01  1.86076E+01  1.88328E+01  1.91735E+01  1.96210E+01  2.00722E+01  2.04150E+01  2.06580E+01  2.08315E+01  2.09807E+01
   2.11957E+01  2.17103E+01  2.29308E+01  2.45127E+01  2.59443E+01  2.73250E+01  3.01062E+01  3.50143E+01  4.00171E+01  4.41508E+01
   4.57489E+01  4.27600E+01  3.70110E+01  3.19333E+01  2.82138E+01  2.53915E+01  2.38341E+01  2.31573E+01  2.27698E+01  2.24983E+01
   2.23417E+01  2.22791E+01  2.22772E+01  2.23075E+01  2.23399E+01  2.23518E+01  2.23500E+01  2.23569E+01  2.23950E+01  2.24788E+01
   2.26120E+01  2.27976E+01  2.30377E+01  2.33188E+01  2.36278E+01  2.39682E+01  2.43413E+01  2.47461E+01  2.51947E+01  2.56953E+01
   2.62449E+01  2.68413E+01  2.74761E+01  2.81371E+01  2.88190E+01  2.95184E+01  3.02326E+01  3.09595E+01  3.16957E+01  3.24387E+01
   3.31827E+01  3.39162E+01  3.46300E+01  3.53191E+01  3.59786E+01  3.66064E+01  3.72037E+01  3.77731E+01  3.83188E+01  3.88464E+01
   3.93631E+01  3.98772E+01  4.03982E+01  4.09363E+01  4.15022E+01  4.21063E+01  4.27583E+01  4.34670E+01  4.42401E+01  4.50839E+01
   4.60025E+01  4.69985E+01  4.80724E+01  4.92230E+01  5.04471E+01  5.17398E+01  5.30946E+01  5.45034E+01  5.59573E+01  5.74465E+01
   5.89606E+01  6.04888E+01  6.20205E+01  6.35450E+01  6.50525E+01  6.65338E+01  6.79803E+01  6.93847E+01  7.07402E+01  7.20414E+01
   7.32835E+01  7.44627E+01  7.55757E+01  7.66196E+01  7.75918E+01  7.84899E+01  7.93114E+01  8.00538E+01  8.07141E+01  8.12891E+01
   8.17753E+01  8.21691E+01  8.24667E+01  8.26643E+01  8.27586E+01  8.27465E+01  8.26254E+01  8.23938E+01  8.20514E+01  8.15987E+01
   8.10376E+01  8.03715E+01  7.96053E+01  7.87451E+01  7.77985E+01  7.67745E+01  7.56828E+01  7.45343E+01  7.33406E+01  7.21139E+01
   7.08664E+01  6.96104E+01  6.83578E+01  6.71198E+01  6.59070E+01  6.47288E+01  6.35931E+01  6.25061E+01  6.14725E+01  6.04950E+01
   5.95742E+01  5.87090E+01  5.78961E+01  5.71307E+01  5.64063E+01  5.57155E+01  5.50499E+01  5.44006E+01  5.37588E+01  5.31161E+01
   5.24649E+01  5.17988E+01  5.11129E+01  5.04035E+01  4.96688E+01  4.89084E+01  4.81233E+01  4.73157E+01  4.64887E+01  4.56460E+01
   4.47915E+01  4.39289E+01  4.30621E+01  4.21942E+01  4.13278E+01  4.04648E+01  3.96065E+01  3.87536E+01  3.79064E+01  3.70647E+01
   3.62282E+01  3.53965E+01  3.45690E+01  3.37457E+01  3.29263E+01  3.21112E+01  3.13008E+01  3.04959E+01  2.96975E+01  2.89070E+01
   2.81257E+01  2.73554E+01  2.65974E+01  2.58536E+01  2.51253E+01  2.44143E+01  2.37216E+01  2.30486E+01  2.23962E+01  2.17651E+01
   2.11561E+01  2.05695E+01  2.00055E+01  1.94641E+01  1.89453E+01  1.84487E+01  1.79741E+01  1.75209E+01  1.70885E+01  1.66764E+01
   1.62837E+01  1.59098E+01  1.55539E+01  1.52153E+01  1.48931E+01  1.45866E+01  1.42950E+01  1.40176E+01  1.37536E+01  1.35023E+01
   1.32631E+01  1.30353E+01  1.28182E+01  1.26114E+01  1.24142E+01  1.22260E+01  1.20465E+01  1.18750E+01  1.17112E+01  1.15546E+01
   1.14049E+01  1.12617E+01  1.11245E+01  1.09931E+01  1.08672E+01  1.07465E+01  1.06307E+01  1.05195E+01  1.04127E+01  1.03100E+01
   1.02113E+01  1.01164E+01  1.00251E+01  9.93707E+00  9.85228E+00  9.77057E+00  9.69178E+00  9.61577E+00  9.54237E+00  9.47147E+00
   9.40298E+00  9.33679E+00  9.27280E+00  9.21088E+00  9.15093E+00  9.09289E+00  9.03668E+00  8.98224E+00  8.92948E+00  8.87830E+00
   8.82865E+00  8.78048E+00  8.73376E+00  8.68843E+00  8.64441E+00  8.60165E+00  8.56011E+00  8.51979E+00
 NY background values follow
     1.219E+01    1.221E+01    1.223E+01    1.224E+01    1.226E+01    1.228E+01    1.229E+01    1.231E+01    1.233E+01    1.234E+01
     1.236E+01    1.238E+01    1.239E+01    1.241E+01    1.242E+01    1.244E+01    1.246E+01    1.247E+01    1.249E+01    1.250E+01
     1.252E+01    1.253E+01    1.255E+01    1.256E+01    1.258E+01    1.259E+01    1.261E+01    1.262E+01    1.264E+01    1.265E+01
     1.267E+01    1.268E+01    1.270E+01    1.271E+01    1.273E+01    1.274E+01    1.276E+01    1.277E+01    1.278E+01    1.280E+01
     1.281E+01    1.283E+01    1.284E+01    1.285E+01    1.287E+01    1.288E+01    1.289E+01    1.291E+01    1.292E+01    1.293E+01
     1.295E+01    1.296E+01    1.297E+01    1.299E+01    1.300E+01    1.301E+01    1.303E+01    1.304E+01    1.305E+01    1.306E+01
     1.308E+01    1.309E+01    1.310E+01    1.311E+01    1.313E+01    1.314E+01    1.315E+01    1.316E+01    1.317E+01    1.319E+01
     1.320E+01    1.321E+01    1.322E+01    1.323E+01    1.324E+01    1.326E+01    1.327E+01    1.328E+01    1.329E+01    1.330E+01
     1.331E+01    1.332E+01    1.333E+01    1.334E+01    1.335E+01    1.337E+01    1.338E+01    1.339E+01    1.340E+01    1.341E+01
     1.342E+01    1.343E+01    1.344E+01    1.345E+01    1.346E+01    1.347E+01    1.348E+01    1.349E+01    1.350E+01    1.351E+01
     1.352E+01    1.353E+01    1.354E+01    1.354E+01    1.355E+01    1.356E+01    1.357E+01    1.358E+01    1.359E+01    1.360E+01
     1.361E+01    1.362E+01    1.362E+01    1.363E+01    1.364E+01    1.365E+01    1.366E+01    1.367E+01    1.368E+01    1.368E+01
     1.369E+01    1.370E+01    1.371E+01    1.372E+01    1.372E+01    1.373E+01    1.374E+01    1.375E+01    1.375E+01    1.376E+01
     1.377E+01    1.378E+01    1.378E+01    1.379E+01    1.380E+01    1.380E+01    1.381E+01    1.382E+01    1.382E+01    1.383E+01
     1.384E+01    1.384E+01    1.385E+01    1.386E+01    1.386E+01    1.387E+01    1.387E+01    1.388E+01    1.389E+01    1.389E+01
     1.390E+01    1.390E+01    1.391E+01    1.392E+01    1.392E+01    1.393E+01    1.393E+01    1.394E+01    1.394E+01    1.395E+01
     1.395E+01    1.396E+01    1.396E+01    1.397E+01    1.397E+01    1.398E+01    1.398E+01    1.399E+01    1.399E+01    1.400E+01
     1.400E+01    1.400E+01    1.401E+01    1.401E+01    1.402E+01    1.402E+01    1.402E+01    1.403E+01    1.403E+01    1.404E+01
     1.404E+01    1.404E+01    1.405E+01    1.405E+01    1.405E+01    1.406E+01    1.406E+01    1.406E+01    1.406E+01    1.407E+01
     1.407E+01    1.407E+01    1.408E+01    1.408E+01    1.408E+01    1.408E+01    1.409E+01    1.409E+01    1.409E+01    1.409E+01
     1.410E+01    1.410E+01    1.410E+01    1.410E+01    1.410E+01    1.411E+01    1.411E+01    1.411E+01    1.411E+01    1.411E+01
     1.411E+01    1.411E+01    1.412E+01    1.412E+01    1.412E+01    1.412E+01    1.412E+01    1.412E+01    1.412E+01    1.412E+01
     1.412E+01    1.412E+01    1.412E+01    1.412E+01    1.413E+01    1.413E+01    1.413E+01    1.413E+01    1.413E+01    1.413E+01
     1.413E+01    1.413E+01    1.413E+01    1.413E+01    1.413E+01    1.412E+01    1.412E+01    1.412E+01    1.412E+01    1.412E+01
     1.412E+01    1.412E+01    1.412E+01    1.412E+01    1.412E+01    1.412E+01    1.412E+01    1.411E+01    1.411E+01    1.411E+01
     1.411E+01    1.411E+01    1.411E+01    1.411E+01    1.410E+01    1.410E+01    1.410E+01    1.410E+01    1.410E+01    1.409E+01
     1.409E+01    1.409E+01    1.409E+01    1.409E+01    1.408E+01    1.408E+01    1.408E+01    1.408E+01    1.407E+01    1.407E+01
     1.407E+01    1.406E+01    1.406E+01    1.406E+01    1.405E+01    1.405E+01    1.405E+01    1.405E+01    1.404E+01    1.404E+01
     1.403E+01    1.403E+01    1.403E+01    1.402E+01    1.402E+01    1.402E+01    1.401E+01    1.401E+01    1.400E+01    1.400E+01
     1.400E+01    1.399E+01    1.399E+01    1.398E+01    1.398E+01    1.397E+01    1.397E+01    1.396E+01    1.396E+01    1.395E+01
     1.395E+01    1.394E+01    1.394E+01    1.393E+01    1.393E+01    1.392E+01    1.392E+01    1.391E+01    1.391E+01    1.390E+01
     1.390E+01    1.389E+01    1.389E+01    1.388E+01    1.387E+01    1.387E+01    1.386E+01    1.386E+01    1.385E+01    1.384E+01
     1.384E+01    1.383E+01    1.383E+01    1.382E+01    1.381E+01    1.381E+01    1.380E+01    1.379E+01    1.379E+01    1.378E+01
     1.377E+01    1.377E+01    1.376E+01    1.375E+01    1.374E+01    1.374E+01    1.373E+01    1.372E+01    1.372E+01    1.371E+01
     1.370E+01    1.369E+01    1.368E+01    1.368E+01    1.367E+01    1.366E+01    1.365E+01    1.365E+01    1.364E+01    1.363E+01
     1.362E+01    1.361E+01    1.361E+01    1.360E+01    1.359E+01    1.358E+01    1.357E+01    1.356E+01    1.355E+01    1.355E+01
     1.354E+01    1.353E+01    1.352E+01    1.351E+01    1.350E+01    1.349E+01    1.348E+01    1.347E+01    1.346E+01    1.345E+01
     1.345E+01    1.344E+01    1.343E+01    1.342E+01    1.341E+01    1.340E+01    1.339E+01    1.338E+01    1.337E+01    1.336E+01
     1.335E+01    1.334E+01    1.333E+01    1.332E+01    1.331E+01    1.330E+01    1.329E+01    1.328E+01    1.327E+01    1.326E+01
     1.324E+01    1.323E+01    1.322E+01    1.321E+01    1.320E+01    1.319E+01    1.318E+01    1.317E+01    1.316E+01    1.315E+01
     1.314E+01    1.312E+01    1.311E+01    1.310E+01    1.309E+01    1.308E+01    1.307E+01    1.306E+01    1.304E+01    1.303E+01
     1.302E+01    1.301E+01    1.300E+01    1.298E+01    1.297E+01    1.296E+01    1.295E+01    1.294E+01    1.292E+01    1.291E+01
     1.290E+01    1.289E+01    1.287E+01    1.286E+01    1.285E+01    1.284E+01    1.282E+01    1.281E+01    1.280E+01    1.279E+01
     1.277E+01    1.276E+01    1.275E+01    1.273E+01    1.272E+01    1.271E+01    1.269E+01    1.268E+01    1.267E+01    1.265E+01
     1.264E+01    1.263E+01    1.261E+01    1.260E+01    1.259E+01    1.257E+01    1.256E+01    1.255E+01    1.253E+01    1.252E+01
     1.250E+01    1.249E+01    1.248E+01    1.246E+01    1.245E+01    1.243E+01    1.242E+01    1.240E+01    1.239E+01    1.238E+01
     1.236E+01    1.235E+01    1.233E+01    1.232E+01    1.230E+01    1.229E+01    1.227E+01    1.226E+01    1.224E+01    1.223E+01
     1.221E+01    1.220E+01    1.218E+01    1.217E+01    1.215E+01    1.214E+01    1.212E+01    1.211E+01    1.209E+01    1.208E+01
     1.206E+01    1.205E+01    1.203E+01    1.201E+01    1.200E+01    1.198E+01    1.197E+01    1.195E+01    1.193E+01    1.192E+01
     1.190E+01    1.189E+01    1.187E+01    1.185E+01    1.184E+01    1.182E+01    1.181E+01    1.179E+01
 Asp      Conc. = 4.15E+01
