 LCModel (Version 6.3-1L) Copyright: S.W. Provencher.          Ref.: Magn. Reson. Med. 30:672-679 (1993).                
 Slice#1 Row#14 Col#6  K_02_press_1_raw_act
 36 lines in following concentration table = NCONC+1
    Conc.  %SD /Cr+PCr  Metabolite                                         
   62.628  75%   0.671 Ala                                                 
   14.025 119%   0.150 Asp                                                 
    0.000 999%   0.000 Cr                                                  
   93.373  21%   1.000 PCr                                                 
    6.892 146% 7.4E-02 GABA                                                
    7.605 133% 8.1E-02 Glc                                                 
    8.198 999% 8.8E-02 Gln                                                 
    0.000 999%   0.000 Glu                                                 
   18.563  40%   0.199 GPC                                                 
    0.000 999%   0.000 PCh                                                 
    0.000 999%   0.000 GSH                                                 
    0.000 999%   0.000 Ins                                                 
    0.000 999%   0.000 Lac                                                 
  188.769  13%   2.022 NAA                                                 
    0.000 999%   0.000 NAAG                                                
    1.983 164% 2.1E-02 Scyllo                                              
    8.503 196% 9.1E-02 Tau                                                 
    0.000 999%   0.000 -CrCH2                                              
   18.563  40%   0.199 GPC+PCh                                             
  188.769  13%   2.022 NAA+NAAG                                            
   93.373  21%   1.000 Cr+PCr                                              
    8.198 999% 8.8E-02 Glu+Gln                                             
    0.000 999%   0.000 Lip13a                                              
   67.960  61%   0.728 Lip13b                                              
   18.050  83%   0.193 Lip09                                               
    1.855 512% 2.0E-02 MM09                                                
    9.529  99%   0.102 Lip20                                               
    0.000 999%   0.000 MM20                                                
    0.327 999% 3.5E-03 MM12                                                
    6.151 300% 6.6E-02 MM14                                                
    5.069 236% 5.4E-02 MM17                                                
   67.960  61%   0.728 Lip13a+Lip13b                                       
   74.438  61%   0.797 MM14+Lip13a+Lip13b+MM12                             
   19.905  89%   0.213 MM09+Lip09                                          
    9.529  99%   0.102 MM20+Lip20                                          
   6 lines in following misc. output table
  FWHM = 0.061 ppm    S/N =   2                                            
  Data shift = 0.000 ppm                                                   
  Ph:  40 deg       4.7 deg/ppm                                            
  alphaB,S = 8.6E-01,   4.4E+01                                            
   14 spline knots.   Ns = 7(1)                                            
  (12) 2 infls.   (12) 1 extrs.                                            
  498 points on ppm-axis = NY
      4.000000     3.992357     3.984714     3.977070     3.969427     3.961784     3.954141     3.946497     3.938854     3.931211
      3.923568     3.915925     3.908281     3.900638     3.892995     3.885352     3.877708     3.870065     3.862422     3.854779
      3.847136     3.839492     3.831849     3.824206     3.816563     3.808919     3.801276     3.793633     3.785990     3.778347
      3.770703     3.763060     3.755417     3.747774     3.740130     3.732487     3.724844     3.717201     3.709558     3.701914
      3.694271     3.686628     3.678985     3.671341     3.663698     3.656055     3.648412     3.640769     3.633125     3.625482
      3.617839     3.610196     3.602552     3.594909     3.587266     3.579623     3.571980     3.564336     3.556693     3.549050
      3.541407     3.533763     3.526120     3.518477     3.510834     3.503191     3.495547     3.487904     3.480261     3.472618
      3.464974     3.457331     3.449688     3.442045     3.434402     3.426758     3.419115     3.411472     3.403829     3.396185
      3.388542     3.380899     3.373256     3.365613     3.357969     3.350326     3.342683     3.335040     3.327396     3.319753
      3.312110     3.304467     3.296824     3.289180     3.281537     3.273894     3.266251     3.258607     3.250964     3.243321
      3.235678     3.228034     3.220391     3.212748     3.205105     3.197462     3.189818     3.182175     3.174532     3.166889
      3.159245     3.151602     3.143959     3.136316     3.128673     3.121029     3.113386     3.105743     3.098100     3.090456
      3.082813     3.075170     3.067527     3.059884     3.052240     3.044597     3.036954     3.029311     3.021667     3.014024
      3.006381     2.998738     2.991095     2.983451     2.975808     2.968165     2.960522     2.952878     2.945235     2.937592
      2.929949     2.922306     2.914662     2.907019     2.899376     2.891733     2.884089     2.876446     2.868803     2.861160
      2.853517     2.845873     2.838230     2.830587     2.822944     2.815300     2.807657     2.800014     2.792371     2.784728
      2.777084     2.769441     2.761798     2.754155     2.746511     2.738868     2.731225     2.723582     2.715939     2.708295
      2.700652     2.693009     2.685366     2.677722     2.670079     2.662436     2.654793     2.647150     2.639506     2.631863
      2.624220     2.616577     2.608933     2.601290     2.593647     2.586004     2.578361     2.570717     2.563074     2.555431
      2.547788     2.540144     2.532501     2.524858     2.517215     2.509572     2.501928     2.494285     2.486642     2.478999
      2.471355     2.463712     2.456069     2.448426     2.440783     2.433139     2.425496     2.417853     2.410210     2.402566
      2.394923     2.387280     2.379637     2.371994     2.364350     2.356707     2.349064     2.341421     2.333777     2.326134
      2.318491     2.310848     2.303205     2.295561     2.287918     2.280275     2.272632     2.264988     2.257345     2.249702
      2.242059     2.234416     2.226772     2.219129     2.211486     2.203843     2.196199     2.188556     2.180913     2.173270
      2.165627     2.157983     2.150340     2.142697     2.135054     2.127410     2.119767     2.112124     2.104481     2.096838
      2.089194     2.081551     2.073908     2.066265     2.058621     2.050978     2.043335     2.035692     2.028049     2.020405
      2.012762     2.005119     1.997476     1.989833     1.982190     1.974546     1.966903     1.959260     1.951617     1.943974
      1.936331     1.928688     1.921045     1.913402     1.905759     1.898115     1.890472     1.882829     1.875186     1.867543
      1.859900     1.852257     1.844614     1.836971     1.829327     1.821684     1.814041     1.806398     1.798755     1.791112
      1.783469     1.775826     1.768183     1.760540     1.752896     1.745253     1.737610     1.729967     1.722324     1.714681
      1.707038     1.699395     1.691752     1.684108     1.676465     1.668822     1.661179     1.653536     1.645893     1.638250
      1.630607     1.622964     1.615321     1.607677     1.600034     1.592391     1.584748     1.577105     1.569462     1.561819
      1.554176     1.546533     1.538890     1.531246     1.523603     1.515960     1.508317     1.500674     1.493031     1.485388
      1.477745     1.470102     1.462458     1.454815     1.447172     1.439529     1.431886     1.424243     1.416600     1.408957
      1.401314     1.393671     1.386027     1.378384     1.370741     1.363098     1.355455     1.347812     1.340169     1.332526
      1.324883     1.317240     1.309596     1.301953     1.294310     1.286667     1.279024     1.271381     1.263738     1.256095
      1.248452     1.240808     1.233165     1.225522     1.217879     1.210236     1.202593     1.194950     1.187307     1.179664
      1.172021     1.164377     1.156734     1.149091     1.141448     1.133805     1.126162     1.118519     1.110876     1.103233
      1.095590     1.087946     1.080303     1.072660     1.065017     1.057374     1.049731     1.042088     1.034445     1.026802
      1.019158     1.011515     1.003872     0.996229     0.988586     0.980943     0.973300     0.965657     0.958014     0.950371
      0.942727     0.935084     0.927441     0.919798     0.912155     0.904512     0.896869     0.889226     0.881583     0.873940
      0.866296     0.858653     0.851010     0.843367     0.835724     0.828081     0.820438     0.812795     0.805152     0.797508
      0.789865     0.782222     0.774579     0.766936     0.759293     0.751650     0.744007     0.736364     0.728721     0.721077
      0.713434     0.705791     0.698148     0.690505     0.682862     0.675219     0.667576     0.659933     0.652290     0.644646
      0.637003     0.629360     0.621717     0.614074     0.606431     0.598788     0.591145     0.583502     0.575858     0.568215
      0.560572     0.552929     0.545286     0.537643     0.530000     0.522357     0.514714     0.507071     0.499427     0.491784
      0.484141     0.476498     0.468855     0.461212     0.453569     0.445925     0.438282     0.430639     0.422996     0.415353
      0.407710     0.400067     0.392424     0.384780     0.377137     0.369494     0.361851     0.354208     0.346565     0.338922
      0.331278     0.323635     0.315992     0.308349     0.300706     0.293063     0.285420     0.277777     0.270133     0.262490
      0.254847     0.247204     0.239561     0.231918     0.224275     0.216631     0.208988     0.201345
 NY phased data points follow
   2.41732E+01  2.50801E+01  2.27717E+01  2.11931E+01  2.28678E+01  2.09254E+01  2.15703E+01  2.26115E+01  2.25158E+01  2.25211E+01
   2.23094E+01  2.06651E+01  2.26391E+01  2.16401E+01  1.96992E+01  1.95863E+01  2.16259E+01  1.76418E+01  1.72264E+01  1.78622E+01
   1.94460E+01  1.79543E+01  1.79976E+01  1.47843E+01  1.89976E+01  1.47771E+01  1.62060E+01  1.72331E+01  1.54084E+01  1.76520E+01
   1.50649E+01  1.31359E+01  1.65044E+01  1.64821E+01  1.52713E+01  1.66163E+01  1.67628E+01  1.54827E+01  1.31118E+01  1.68021E+01
   1.63402E+01  1.28308E+01  1.38663E+01  1.43374E+01  1.49940E+01  1.26335E+01  1.40660E+01  1.37059E+01  1.26545E+01  1.46903E+01
   1.53460E+01  1.62447E+01  1.20287E+01  1.32975E+01  1.30683E+01  1.23982E+01  1.31256E+01  1.15145E+01  1.20081E+01  1.16529E+01
   1.28964E+01  1.48527E+01  1.16513E+01  1.41198E+01  9.71524E+00  1.21632E+01  1.08399E+01  1.10153E+01  1.16507E+01  1.21968E+01
   1.08388E+01  1.16841E+01  1.19042E+01  1.13751E+01  1.06014E+01  1.14308E+01  1.39992E+01  9.72734E+00  9.45776E+00  1.13016E+01
   8.97596E+00  1.10877E+01  1.01362E+01  1.07969E+01  1.17552E+01  1.05591E+01  8.82797E+00  9.58690E+00  1.21368E+01  9.71478E+00
   8.34985E+00  1.03855E+01  1.04620E+01  7.49561E+00  1.17725E+01  9.21323E+00  1.36351E+01  9.00260E+00  9.19727E+00  1.02550E+01
   1.12467E+01  9.81555E+00  1.07313E+01  1.29901E+01  1.16554E+01  9.39348E+00  1.13017E+01  1.12418E+01  9.33367E+00  8.19268E+00
   1.11093E+01  1.01505E+01  8.34295E+00  7.89117E+00  7.18889E+00  9.01373E+00  7.62793E+00  8.57490E+00  8.89164E+00  9.04371E+00
   6.68213E+00  8.02048E+00  7.69060E+00  9.21128E+00  9.62586E+00  9.36340E+00  8.13768E+00  8.77822E+00  1.06344E+01  9.90773E+00
   1.12337E+01  1.02336E+01  9.74964E+00  7.25503E+00  8.07942E+00  9.35014E+00  8.99148E+00  8.93088E+00  8.98013E+00  8.01187E+00
   8.71178E+00  9.97183E+00  8.60336E+00  6.78696E+00  9.56753E+00  8.28720E+00  6.12064E+00  4.27293E+00  8.45542E+00  6.87423E+00
   5.86511E+00  7.21161E+00  5.44584E+00  8.47744E+00  8.37862E+00  8.52315E+00  7.62260E+00  6.80709E+00  7.74036E+00  7.07834E+00
   8.20902E+00  7.82566E+00  6.46781E+00  7.11147E+00  6.60686E+00  9.95598E+00  5.00529E+00  6.55137E+00  5.94236E+00  5.97968E+00
   5.48274E+00  7.29047E+00  5.62631E+00  7.83042E+00  4.91494E+00  5.81259E+00  6.10695E+00  7.36144E+00  5.92364E+00  7.13039E+00
   5.29230E+00  7.57100E+00  8.31830E+00  6.98258E+00  8.71957E+00  4.04364E+00  5.55889E+00  4.50606E+00  1.58419E+00  6.56661E+00
   6.14763E+00  6.89340E+00  8.31530E+00  7.62674E+00  4.84136E+00  6.03323E+00  6.96421E+00  6.64911E+00  8.42028E+00  7.34079E+00
   7.51533E+00  5.79416E+00  7.08082E+00  5.75622E+00  6.47221E+00  6.73718E+00  5.91121E+00  6.84505E+00  5.77121E+00  6.02457E+00
   8.15055E+00  7.24382E+00  5.38740E+00  4.95821E+00  5.56254E+00  6.56556E+00  6.68004E+00  6.58785E+00  6.08445E+00  7.69245E+00
   8.03012E+00  5.97881E+00  5.61541E+00  5.61679E+00  4.26668E+00  6.29044E+00  6.30280E+00  5.37846E+00  7.11810E+00  3.44179E+00
   5.72190E+00  5.79282E+00  8.04127E+00  7.30229E+00  6.09162E+00  3.13238E+00  4.61691E+00  5.97976E+00  4.12335E+00  3.93732E+00
   3.22975E+00  5.92391E+00  4.26026E+00  4.78336E+00  4.31482E+00  3.08654E+00  4.68029E+00  3.05620E+00  6.13705E+00  4.32497E+00
  -4.03860E-01  4.32475E+00  1.56497E+00  2.42392E+00  5.12184E+00  5.46266E+00  8.02908E+00  9.01986E+00  8.12626E+00  9.68141E+00
   1.09449E+01  1.10342E+01  9.00782E+00  9.91204E+00  9.27422E+00  7.84088E+00  4.00504E+00  3.74557E+00  5.09347E+00  3.44441E+00
   2.37253E+00  5.39829E+00  2.97114E+00  4.86591E+00  7.52863E-01  2.71819E+00  3.43566E+00  1.41948E+00  4.40394E+00  3.77940E+00
   1.85788E+00  2.16999E+00  2.71602E+00  4.06617E+00  3.38127E+00  3.35081E+00  2.75210E+00  8.12754E+00  5.62250E+00  4.86724E+00
   3.97493E+00  6.11759E+00  3.64627E+00  6.60661E+00  5.76211E+00  5.17061E+00  7.04665E+00  4.42195E+00  5.63778E+00  5.12319E+00
   6.90800E+00  7.22058E+00  6.99172E-01  5.66660E+00  3.43407E+00  3.42081E+00  4.84585E+00  4.69101E+00  5.60089E+00  4.44292E+00
   1.54351E+00  4.22164E+00  2.51762E+00  4.79912E+00  2.36517E+00  5.65003E+00  2.28437E+00  3.18884E+00  2.58081E+00  3.82901E+00
   3.96090E+00  5.45116E+00  5.10444E+00  4.65354E+00  3.99467E+00  6.12616E+00  5.54412E+00  3.43529E+00  5.45614E+00  3.53445E+00
   2.18553E+00  2.57497E+00  5.92456E+00  2.91924E+00  4.94203E+00  2.42626E+00  4.29624E+00  5.19071E+00  5.45778E+00  2.08281E+00
   3.07583E+00  2.60810E+00  4.45226E+00  4.65127E+00  2.61997E+00  2.06311E+00  3.26605E+00  6.08893E-01  4.33978E+00  4.72255E+00
   1.09968E+00  4.59290E+00  2.99236E+00  4.15854E+00  1.81713E+00  5.64558E+00  5.46866E+00  4.76974E+00  3.39357E+00  3.23507E+00
   3.56695E+00  4.36189E+00  4.02052E+00  2.07283E+00  2.21029E+00  2.01037E+00  2.70400E+00  1.39343E-01  1.88269E+00  1.57197E+00
   3.08240E+00  1.75366E+00  1.02259E+00  2.76745E+00  2.35789E+00  3.88376E+00  2.94860E-02  2.24003E+00  2.67608E+00  4.14693E+00
   2.89267E+00  3.51160E+00  2.51932E+00  8.55669E-01  2.12756E+00  2.02654E+00  3.96175E-01  2.24950E+00  1.62342E+00 -3.80499E-01
   2.04868E+00  1.60656E+00  3.49200E-01  4.04038E+00  3.50392E+00  1.01344E+00  2.08036E+00  4.24082E-01  2.66631E+00  3.59334E+00
   1.36100E+00  2.35732E+00  2.61379E+00  2.09801E+00  2.95691E+00  3.04812E+00  3.12576E+00  3.83390E+00  4.71241E+00  3.58724E+00
   2.67775E+00  2.36912E+00  3.09673E+00 -2.59551E-01  1.30598E+00  1.34787E+00  1.24093E-01  3.51539E+00  3.24148E+00 -6.85020E-01
  -1.62148E-01  5.63962E-01  2.22952E+00  2.17688E+00  8.06148E-01  3.44647E+00 -2.19933E-01  3.26891E+00  1.48209E+00  3.74594E+00
   1.97802E+00  8.64434E-01  4.56432E-01  2.41226E+00  2.66632E+00  2.27648E+00  2.39825E+00  3.37737E-01  2.73508E+00  1.79401E+00
   3.98412E+00  7.06687E-01  1.32848E+00  1.40641E+00  2.58189E+00  2.60084E+00  2.49575E+00  1.99502E+00  8.45392E-01  3.15002E+00
   1.34226E+00  2.81045E+00  1.29830E+00  1.03000E+00  1.63161E+00  3.27979E+00  9.42139E-01  1.30982E+00  2.50019E+00  2.51260E+00
   2.65577E+00  2.01420E+00  1.63335E+00  2.15217E+00  1.28300E+00 -1.26337E-01  1.52940E+00  1.62529E+00  3.64769E+00  1.73740E+00
   2.35415E+00  3.61606E+00  8.38453E-01 -3.78421E-01  2.04168E+00  1.27888E+00  8.91150E-01 -2.84569E+00 -8.17743E-01  3.66476E-01
  -6.50022E-02 -1.80806E-01  5.45358E-01  6.31305E-01  1.17833E+00  3.91344E+00  3.19080E+00  6.49685E-02 -1.17947E+00  5.28288E-01
   1.40748E+00  2.12155E+00  1.10883E+00  1.24269E+00  1.42344E+00 -6.64330E-01  6.51756E-01  2.31638E+00
 NY points of the fit to the data follow
   2.01955E+01  2.00972E+01  2.00240E+01  2.00278E+01  2.01535E+01  2.03637E+01  2.05796E+01  2.07544E+01  2.08835E+01  2.09502E+01
   2.09099E+01  2.07309E+01  2.04068E+01  1.99439E+01  1.93902E+01  1.88571E+01  1.84480E+01  1.81767E+01  1.79978E+01  1.78693E+01
   1.77595E+01  1.76500E+01  1.75333E+01  1.74085E+01  1.72710E+01  1.71128E+01  1.69327E+01  1.67447E+01  1.65682E+01  1.64144E+01
   1.62890E+01  1.61960E+01  1.61316E+01  1.60829E+01  1.60328E+01  1.59656E+01  1.58746E+01  1.57601E+01  1.56249E+01  1.54754E+01
   1.53243E+01  1.51819E+01  1.50498E+01  1.49247E+01  1.48081E+01  1.47042E+01  1.46092E+01  1.45125E+01  1.44099E+01  1.43057E+01
   1.42025E+01  1.40988E+01  1.39935E+01  1.38861E+01  1.37744E+01  1.36579E+01  1.35392E+01  1.34219E+01  1.33079E+01  1.31974E+01
   1.30902E+01  1.29867E+01  1.28866E+01  1.27890E+01  1.26923E+01  1.25955E+01  1.24985E+01  1.24018E+01  1.23060E+01  1.22124E+01
   1.21229E+01  1.20374E+01  1.19543E+01  1.18717E+01  1.17891E+01  1.17057E+01  1.16205E+01  1.15326E+01  1.14420E+01  1.13501E+01
   1.12619E+01  1.11834E+01  1.11151E+01  1.10527E+01  1.09918E+01  1.09302E+01  1.08647E+01  1.07913E+01  1.07077E+01  1.06145E+01
   1.05134E+01  1.04093E+01  1.03112E+01  1.02268E+01  1.01575E+01  1.01047E+01  1.00915E+01  1.01763E+01  1.03706E+01  1.06146E+01
   1.08395E+01  1.10234E+01  1.11649E+01  1.12354E+01  1.11950E+01  1.10298E+01  1.07413E+01  1.03442E+01  9.90489E+00  9.52995E+00
   9.28099E+00  9.13595E+00  9.04674E+00  8.97835E+00  8.91683E+00  8.85931E+00  8.80534E+00  8.75514E+00  8.71020E+00  8.67737E+00
   8.68774E+00  8.83171E+00  9.16412E+00  9.61256E+00  1.00588E+01  1.04462E+01  1.07731E+01  1.10055E+01  1.10695E+01  1.09209E+01
   1.05557E+01  9.98890E+00  9.30522E+00  8.67830E+00  8.24848E+00  8.01442E+00  7.89630E+00  7.82674E+00  7.77302E+00  7.72733E+00
   7.68686E+00  7.64929E+00  7.61276E+00  7.57637E+00  7.53999E+00  7.50424E+00  7.46956E+00  7.43542E+00  7.40062E+00  7.36422E+00
   7.32662E+00  7.28958E+00  7.25516E+00  7.22369E+00  7.19145E+00  7.15018E+00  7.09644E+00  7.03599E+00  6.97871E+00  6.93197E+00
   6.89360E+00  6.85850E+00  6.82619E+00  6.79999E+00  6.78214E+00  6.76971E+00  6.75353E+00  6.72215E+00  6.66867E+00  6.59556E+00
   6.51159E+00  6.42982E+00  6.36369E+00  6.31664E+00  6.28216E+00  6.24805E+00  6.21196E+00  6.18323E+00  6.16879E+00  6.16604E+00
   6.16627E+00  6.15814E+00  6.13732E+00  6.11256E+00  6.09928E+00  6.10564E+00  6.12661E+00  6.15256E+00  6.17776E+00  6.20313E+00
   6.23317E+00  6.27051E+00  6.30339E+00  6.31303E+00  6.29408E+00  6.25826E+00  6.21780E+00  6.17872E+00  6.14558E+00  6.11809E+00
   6.09149E+00  6.06312E+00  6.03878E+00  6.02437E+00  6.01362E+00  5.99327E+00  5.95371E+00  5.88649E+00  5.79242E+00  5.68788E+00
   5.59484E+00  5.52377E+00  5.47278E+00  5.44010E+00  5.42580E+00  5.42730E+00  5.44017E+00  5.46152E+00  5.48597E+00  5.50341E+00
   5.50714E+00  5.49948E+00  5.48541E+00  5.46764E+00  5.44553E+00  5.41752E+00  5.38400E+00  5.34718E+00  5.30940E+00  5.27245E+00
   5.23790E+00  5.20781E+00  5.18377E+00  5.16579E+00  5.15256E+00  5.14228E+00  5.13249E+00  5.12009E+00  5.10382E+00  5.08486E+00
   5.06474E+00  5.04302E+00  5.01810E+00  4.98964E+00  4.95938E+00  4.93006E+00  4.90467E+00  4.88567E+00  4.87378E+00  4.86827E+00
   4.86870E+00  4.87691E+00  4.90264E+00  4.99571E+00  5.32853E+00  6.04518E+00  7.02273E+00  8.01336E+00  8.88020E+00  9.62328E+00
   1.01916E+01  1.04366E+01  1.02560E+01  9.63670E+00  8.59896E+00  7.28878E+00  6.04916E+00  5.19520E+00  4.75555E+00  4.56846E+00
   4.48953E+00  4.44280E+00  4.40913E+00  4.38296E+00  4.36150E+00  4.34266E+00  4.32441E+00  4.30527E+00  4.28464E+00  4.26274E+00
   4.24024E+00  4.21791E+00  4.19661E+00  4.17719E+00  4.16004E+00  4.14498E+00  4.13148E+00  4.11897E+00  4.10688E+00  4.09465E+00
   4.08183E+00  4.06831E+00  4.05437E+00  4.04029E+00  4.02621E+00  4.01228E+00  3.99863E+00  3.98528E+00  3.97219E+00  3.95933E+00
   3.94659E+00  3.93388E+00  3.92112E+00  3.90825E+00  3.89529E+00  3.88227E+00  3.86925E+00  3.85630E+00  3.84346E+00  3.83083E+00
   3.81854E+00  3.80677E+00  3.79574E+00  3.78574E+00  3.77715E+00  3.77051E+00  3.76666E+00  3.76690E+00  3.77351E+00  3.79112E+00
   3.83011E+00  3.90308E+00  3.98876E+00  4.04015E+00  4.02916E+00  3.96009E+00  3.84054E+00  3.65897E+00  3.40786E+00  3.12911E+00
   2.89064E+00  2.73424E+00  2.68227E+00  2.75171E+00  2.93401E+00  3.17906E+00  3.42506E+00  3.62919E+00  3.76786E+00  3.81775E+00
   3.76781E+00  3.65050E+00  3.52615E+00  3.43312E+00  3.37750E+00  3.35267E+00  3.35210E+00  3.37389E+00  3.41741E+00  3.48120E+00
   3.56172E+00  3.65278E+00  3.74556E+00  3.82941E+00  3.89320E+00  3.92712E+00  3.92439E+00  3.88255E+00  3.80387E+00  3.69496E+00
   3.56544E+00  3.42624E+00  3.28775E+00  3.15842E+00  3.04394E+00  2.94706E+00  2.86803E+00  2.80525E+00  2.75608E+00  2.71752E+00
   2.68675E+00  2.66140E+00  2.63965E+00  2.62024E+00  2.60230E+00  2.58530E+00  2.56893E+00  2.55302E+00  2.53750E+00  2.52235E+00
   2.50757E+00  2.49314E+00  2.47910E+00  2.46547E+00  2.45227E+00  2.43955E+00  2.42730E+00  2.41556E+00  2.40433E+00  2.39364E+00
   2.38349E+00  2.37387E+00  2.36474E+00  2.35607E+00  2.34780E+00  2.33987E+00  2.33219E+00  2.32465E+00  2.31712E+00  2.30946E+00
   2.30155E+00  2.29325E+00  2.28442E+00  2.27492E+00  2.26464E+00  2.25350E+00  2.24143E+00  2.22841E+00  2.21442E+00  2.19947E+00
   2.18363E+00  2.16697E+00  2.14960E+00  2.13164E+00  2.11321E+00  2.09445E+00  2.07548E+00  2.05645E+00  2.03747E+00  2.01865E+00
   2.00006E+00  1.98179E+00  1.96388E+00  1.94639E+00  1.92932E+00  1.91270E+00  1.89650E+00  1.88073E+00  1.86535E+00  1.85036E+00
   1.83572E+00  1.82139E+00  1.80734E+00  1.79354E+00  1.77998E+00  1.76661E+00  1.75342E+00  1.74037E+00  1.72744E+00  1.71462E+00
   1.70189E+00  1.68923E+00  1.67662E+00  1.66405E+00  1.65151E+00  1.63899E+00  1.62648E+00  1.61397E+00  1.60145E+00  1.58891E+00
   1.57634E+00  1.56374E+00  1.55111E+00  1.53843E+00  1.52571E+00  1.51293E+00  1.50012E+00  1.48726E+00  1.47437E+00  1.46143E+00
   1.44844E+00  1.43541E+00  1.42235E+00  1.40925E+00  1.39612E+00  1.38294E+00  1.36973E+00  1.35649E+00  1.34323E+00  1.32993E+00
   1.31661E+00  1.30325E+00  1.28987E+00  1.27648E+00  1.26306E+00  1.24963E+00  1.23617E+00  1.22270E+00  1.20921E+00  1.19572E+00
   1.18222E+00  1.16871E+00  1.15518E+00  1.14166E+00  1.12813E+00  1.11461E+00  1.10109E+00  1.08757E+00  1.07406E+00  1.06055E+00
   1.04706E+00  1.03358E+00  1.02011E+00  1.00666E+00  9.93224E-01  9.79811E-01  9.66425E-01  9.53066E-01
 NY background values follow
     2.012E+01    1.999E+01    1.986E+01    1.974E+01    1.961E+01    1.948E+01    1.936E+01    1.923E+01    1.911E+01    1.898E+01
     1.885E+01    1.873E+01    1.860E+01    1.848E+01    1.835E+01    1.823E+01    1.810E+01    1.798E+01    1.785E+01    1.773E+01
     1.760E+01    1.748E+01    1.735E+01    1.723E+01    1.711E+01    1.698E+01    1.686E+01    1.674E+01    1.662E+01    1.650E+01
     1.638E+01    1.626E+01    1.614E+01    1.602E+01    1.590E+01    1.578E+01    1.566E+01    1.555E+01    1.543E+01    1.531E+01
     1.520E+01    1.508E+01    1.497E+01    1.485E+01    1.474E+01    1.463E+01    1.452E+01    1.441E+01    1.430E+01    1.419E+01
     1.408E+01    1.397E+01    1.386E+01    1.376E+01    1.365E+01    1.355E+01    1.344E+01    1.334E+01    1.324E+01    1.314E+01
     1.304E+01    1.294E+01    1.284E+01    1.274E+01    1.264E+01    1.254E+01    1.245E+01    1.235E+01    1.226E+01    1.216E+01
     1.207E+01    1.198E+01    1.189E+01    1.180E+01    1.171E+01    1.162E+01    1.153E+01    1.144E+01    1.136E+01    1.127E+01
     1.119E+01    1.111E+01    1.102E+01    1.094E+01    1.086E+01    1.078E+01    1.070E+01    1.062E+01    1.055E+01    1.047E+01
     1.040E+01    1.032E+01    1.025E+01    1.018E+01    1.010E+01    1.003E+01    9.965E+00    9.896E+00    9.828E+00    9.761E+00
     9.695E+00    9.629E+00    9.565E+00    9.501E+00    9.439E+00    9.377E+00    9.316E+00    9.255E+00    9.196E+00    9.137E+00
     9.079E+00    9.022E+00    8.965E+00    8.910E+00    8.855E+00    8.801E+00    8.747E+00    8.694E+00    8.642E+00    8.591E+00
     8.540E+00    8.491E+00    8.441E+00    8.393E+00    8.345E+00    8.298E+00    8.251E+00    8.205E+00    8.160E+00    8.115E+00
     8.071E+00    8.027E+00    7.984E+00    7.942E+00    7.900E+00    7.859E+00    7.818E+00    7.778E+00    7.739E+00    7.700E+00
     7.661E+00    7.623E+00    7.586E+00    7.549E+00    7.512E+00    7.476E+00    7.441E+00    7.406E+00    7.371E+00    7.337E+00
     7.303E+00    7.270E+00    7.236E+00    7.204E+00    7.172E+00    7.140E+00    7.108E+00    7.077E+00    7.046E+00    7.015E+00
     6.985E+00    6.955E+00    6.925E+00    6.896E+00    6.867E+00    6.838E+00    6.809E+00    6.781E+00    6.753E+00    6.725E+00
     6.697E+00    6.670E+00    6.642E+00    6.615E+00    6.588E+00    6.561E+00    6.534E+00    6.508E+00    6.481E+00    6.455E+00
     6.429E+00    6.403E+00    6.377E+00    6.351E+00    6.325E+00    6.299E+00    6.273E+00    6.247E+00    6.222E+00    6.196E+00
     6.171E+00    6.145E+00    6.120E+00    6.095E+00    6.070E+00    6.045E+00    6.019E+00    5.994E+00    5.970E+00    5.945E+00
     5.920E+00    5.895E+00    5.871E+00    5.846E+00    5.821E+00    5.797E+00    5.773E+00    5.748E+00    5.724E+00    5.700E+00
     5.675E+00    5.651E+00    5.627E+00    5.603E+00    5.579E+00    5.555E+00    5.531E+00    5.507E+00    5.484E+00    5.460E+00
     5.436E+00    5.412E+00    5.389E+00    5.365E+00    5.342E+00    5.318E+00    5.295E+00    5.271E+00    5.248E+00    5.224E+00
     5.201E+00    5.178E+00    5.155E+00    5.131E+00    5.108E+00    5.085E+00    5.062E+00    5.039E+00    5.017E+00    4.994E+00
     4.971E+00    4.949E+00    4.926E+00    4.904E+00    4.882E+00    4.860E+00    4.838E+00    4.816E+00    4.794E+00    4.772E+00
     4.751E+00    4.730E+00    4.708E+00    4.687E+00    4.666E+00    4.645E+00    4.625E+00    4.604E+00    4.584E+00    4.564E+00
     4.544E+00    4.524E+00    4.505E+00    4.485E+00    4.466E+00    4.447E+00    4.428E+00    4.409E+00    4.391E+00    4.373E+00
     4.355E+00    4.337E+00    4.319E+00    4.302E+00    4.285E+00    4.268E+00    4.251E+00    4.234E+00    4.218E+00    4.201E+00
     4.185E+00    4.169E+00    4.153E+00    4.138E+00    4.122E+00    4.107E+00    4.091E+00    4.076E+00    4.061E+00    4.045E+00
     4.030E+00    4.015E+00    4.000E+00    3.985E+00    3.970E+00    3.955E+00    3.940E+00    3.925E+00    3.910E+00    3.895E+00
     3.880E+00    3.865E+00    3.850E+00    3.835E+00    3.820E+00    3.805E+00    3.789E+00    3.774E+00    3.758E+00    3.743E+00
     3.727E+00    3.711E+00    3.695E+00    3.679E+00    3.662E+00    3.646E+00    3.629E+00    3.612E+00    3.595E+00    3.578E+00
     3.561E+00    3.543E+00    3.526E+00    3.508E+00    3.490E+00    3.472E+00    3.453E+00    3.435E+00    3.417E+00    3.398E+00
     3.380E+00    3.361E+00    3.342E+00    3.323E+00    3.304E+00    3.285E+00    3.266E+00    3.247E+00    3.228E+00    3.209E+00
     3.189E+00    3.170E+00    3.151E+00    3.132E+00    3.112E+00    3.093E+00    3.074E+00    3.054E+00    3.035E+00    3.016E+00
     2.997E+00    2.978E+00    2.959E+00    2.940E+00    2.921E+00    2.902E+00    2.883E+00    2.865E+00    2.846E+00    2.827E+00
     2.809E+00    2.791E+00    2.773E+00    2.755E+00    2.737E+00    2.719E+00    2.701E+00    2.684E+00    2.666E+00    2.649E+00
     2.632E+00    2.615E+00    2.598E+00    2.581E+00    2.564E+00    2.548E+00    2.531E+00    2.515E+00    2.499E+00    2.483E+00
     2.467E+00    2.451E+00    2.435E+00    2.419E+00    2.404E+00    2.388E+00    2.373E+00    2.358E+00    2.343E+00    2.328E+00
     2.313E+00    2.298E+00    2.284E+00    2.269E+00    2.255E+00    2.240E+00    2.226E+00    2.212E+00    2.198E+00    2.184E+00
     2.170E+00    2.157E+00    2.143E+00    2.130E+00    2.116E+00    2.103E+00    2.090E+00    2.077E+00    2.064E+00    2.051E+00
     2.038E+00    2.026E+00    2.013E+00    2.001E+00    1.988E+00    1.976E+00    1.964E+00    1.952E+00    1.939E+00    1.927E+00
     1.915E+00    1.903E+00    1.891E+00    1.880E+00    1.868E+00    1.856E+00    1.844E+00    1.833E+00    1.821E+00    1.809E+00
     1.798E+00    1.786E+00    1.774E+00    1.763E+00    1.751E+00    1.739E+00    1.728E+00    1.716E+00    1.704E+00    1.693E+00
     1.681E+00    1.669E+00    1.658E+00    1.646E+00    1.634E+00    1.622E+00    1.610E+00    1.598E+00    1.586E+00    1.574E+00
     1.562E+00    1.550E+00    1.538E+00    1.526E+00    1.513E+00    1.501E+00    1.488E+00    1.476E+00    1.463E+00    1.450E+00
     1.438E+00    1.425E+00    1.412E+00    1.399E+00    1.386E+00    1.373E+00    1.360E+00    1.347E+00    1.334E+00    1.321E+00
     1.308E+00    1.295E+00    1.281E+00    1.268E+00    1.255E+00    1.242E+00    1.228E+00    1.215E+00    1.202E+00    1.188E+00
     1.175E+00    1.161E+00    1.148E+00    1.135E+00    1.121E+00    1.108E+00    1.094E+00    1.081E+00    1.068E+00    1.054E+00
     1.041E+00    1.027E+00    1.014E+00    1.001E+00    9.872E-01    9.738E-01    9.605E-01    9.472E-01
 Ala      Conc. = 6.26E+01
