 LCModel (Version 6.3-1L) Copyright: S.W. Provencher.          Ref.: Magn. Reson. Med. 30:672-679 (1993).                
 Slice#1 Row#2 Col#11  K_02_press_1_raw_act
 36 lines in following concentration table = NCONC+1
    Conc.  %SD /Cr+PCr  Metabolite                                         
  259.298  48%   0.980 Ala                                                 
   32.346 138%   0.122 Asp                                                 
  264.528  23%   1.000 Cr                                                  
    0.000 999%   0.000 PCr                                                 
   12.853 209% 4.9E-02 GABA                                                
   12.822 210% 4.8E-02 Glc                                                 
   69.491 300%   0.263 Gln                                                 
    0.000 999%   0.000 Glu                                                 
    0.000 999%   0.000 GPC                                                 
    0.000 999%   0.000 PCh                                                 
    0.000 999%   0.000 GSH                                                 
    0.000 999%   0.000 Ins                                                 
  224.872  58%   0.850 Lac                                                 
   65.424 111%   0.247 NAA                                                 
  162.716  44%   0.615 NAAG                                                
    0.748 999% 2.8E-03 Scyllo                                              
   27.970 158%   0.106 Tau                                                 
   55.714  98%   0.211 -CrCH2                                              
    0.000 999%   0.000 GPC+PCh                                             
  228.140  34%   0.862 NAA+NAAG                                            
  264.528  23%   1.000 Cr+PCr                                              
   69.491 300%   0.263 Glu+Gln                                             
 2.30E+04   3%  87.002 Lip13a                                              
    0.000 999%   0.000 Lip13b                                              
 5.16E+03   7%  19.503 Lip09                                               
    0.000 999%   0.000 MM09                                                
 3.37E+03   8%  12.745 Lip20                                               
    0.000 999%   0.000 MM20                                                
    2.213 844% 8.4E-03 MM12                                                
   37.663 223%   0.142 MM14                                                
    0.000 999%   0.000 MM17                                                
 2.30E+04   3%  87.002 Lip13a+Lip13b                                       
 2.31E+04   3%  87.153 MM14+Lip13a+Lip13b+MM12                             
 5.16E+03   7%  19.503 MM09+Lip09                                          
 3.37E+03   8%  12.745 MM20+Lip20                                          
   6 lines in following misc. output table
  FWHM = 0.229 ppm    S/N =  16                                            
  Data shift =-0.023 ppm                                                   
  Ph:  58 deg      55.2 deg/ppm                                            
  alphaB,S = 1.3E+00,   1.7E+01                                            
   14 spline knots.   Ns = 7(2)                                            
  ( 9) 8 infls.   (11) 7 extrs.                                            
  498 points on ppm-axis = NY
      4.000000     3.992357     3.984714     3.977070     3.969427     3.961784     3.954141     3.946497     3.938854     3.931211
      3.923568     3.915925     3.908281     3.900638     3.892995     3.885352     3.877708     3.870065     3.862422     3.854779
      3.847136     3.839492     3.831849     3.824206     3.816563     3.808919     3.801276     3.793633     3.785990     3.778347
      3.770703     3.763060     3.755417     3.747774     3.740130     3.732487     3.724844     3.717201     3.709558     3.701914
      3.694271     3.686628     3.678985     3.671341     3.663698     3.656055     3.648412     3.640769     3.633125     3.625482
      3.617839     3.610196     3.602552     3.594909     3.587266     3.579623     3.571980     3.564336     3.556693     3.549050
      3.541407     3.533763     3.526120     3.518477     3.510834     3.503191     3.495547     3.487904     3.480261     3.472618
      3.464974     3.457331     3.449688     3.442045     3.434402     3.426758     3.419115     3.411472     3.403829     3.396185
      3.388542     3.380899     3.373256     3.365613     3.357969     3.350326     3.342683     3.335040     3.327396     3.319753
      3.312110     3.304467     3.296824     3.289180     3.281537     3.273894     3.266251     3.258607     3.250964     3.243321
      3.235678     3.228034     3.220391     3.212748     3.205105     3.197462     3.189818     3.182175     3.174532     3.166889
      3.159245     3.151602     3.143959     3.136316     3.128673     3.121029     3.113386     3.105743     3.098100     3.090456
      3.082813     3.075170     3.067527     3.059884     3.052240     3.044597     3.036954     3.029311     3.021667     3.014024
      3.006381     2.998738     2.991095     2.983451     2.975808     2.968165     2.960522     2.952878     2.945235     2.937592
      2.929949     2.922306     2.914662     2.907019     2.899376     2.891733     2.884089     2.876446     2.868803     2.861160
      2.853517     2.845873     2.838230     2.830587     2.822944     2.815300     2.807657     2.800014     2.792371     2.784728
      2.777084     2.769441     2.761798     2.754155     2.746511     2.738868     2.731225     2.723582     2.715939     2.708295
      2.700652     2.693009     2.685366     2.677722     2.670079     2.662436     2.654793     2.647150     2.639506     2.631863
      2.624220     2.616577     2.608933     2.601290     2.593647     2.586004     2.578361     2.570717     2.563074     2.555431
      2.547788     2.540144     2.532501     2.524858     2.517215     2.509572     2.501928     2.494285     2.486642     2.478999
      2.471355     2.463712     2.456069     2.448426     2.440783     2.433139     2.425496     2.417853     2.410210     2.402566
      2.394923     2.387280     2.379637     2.371994     2.364350     2.356707     2.349064     2.341421     2.333777     2.326134
      2.318491     2.310848     2.303205     2.295561     2.287918     2.280275     2.272632     2.264988     2.257345     2.249702
      2.242059     2.234416     2.226772     2.219129     2.211486     2.203843     2.196199     2.188556     2.180913     2.173270
      2.165627     2.157983     2.150340     2.142697     2.135054     2.127410     2.119767     2.112124     2.104481     2.096838
      2.089194     2.081551     2.073908     2.066265     2.058621     2.050978     2.043335     2.035692     2.028049     2.020405
      2.012762     2.005119     1.997476     1.989833     1.982190     1.974546     1.966903     1.959260     1.951617     1.943974
      1.936331     1.928688     1.921045     1.913402     1.905759     1.898115     1.890472     1.882829     1.875186     1.867543
      1.859900     1.852257     1.844614     1.836971     1.829327     1.821684     1.814041     1.806398     1.798755     1.791112
      1.783469     1.775826     1.768183     1.760540     1.752896     1.745253     1.737610     1.729967     1.722324     1.714681
      1.707038     1.699395     1.691752     1.684108     1.676465     1.668822     1.661179     1.653536     1.645893     1.638250
      1.630607     1.622964     1.615321     1.607677     1.600034     1.592391     1.584748     1.577105     1.569462     1.561819
      1.554176     1.546533     1.538890     1.531246     1.523603     1.515960     1.508317     1.500674     1.493031     1.485388
      1.477745     1.470102     1.462458     1.454815     1.447172     1.439529     1.431886     1.424243     1.416600     1.408957
      1.401314     1.393671     1.386027     1.378384     1.370741     1.363098     1.355455     1.347812     1.340169     1.332526
      1.324883     1.317240     1.309596     1.301953     1.294310     1.286667     1.279024     1.271381     1.263738     1.256095
      1.248452     1.240808     1.233165     1.225522     1.217879     1.210236     1.202593     1.194950     1.187307     1.179664
      1.172021     1.164377     1.156734     1.149091     1.141448     1.133805     1.126162     1.118519     1.110876     1.103233
      1.095590     1.087946     1.080303     1.072660     1.065017     1.057374     1.049731     1.042088     1.034445     1.026802
      1.019158     1.011515     1.003872     0.996229     0.988586     0.980943     0.973300     0.965657     0.958014     0.950371
      0.942727     0.935084     0.927441     0.919798     0.912155     0.904512     0.896869     0.889226     0.881583     0.873940
      0.866296     0.858653     0.851010     0.843367     0.835724     0.828081     0.820438     0.812795     0.805152     0.797508
      0.789865     0.782222     0.774579     0.766936     0.759293     0.751650     0.744007     0.736364     0.728721     0.721077
      0.713434     0.705791     0.698148     0.690505     0.682862     0.675219     0.667576     0.659933     0.652290     0.644646
      0.637003     0.629360     0.621717     0.614074     0.606431     0.598788     0.591145     0.583502     0.575858     0.568215
      0.560572     0.552929     0.545286     0.537643     0.530000     0.522357     0.514714     0.507071     0.499427     0.491784
      0.484141     0.476498     0.468855     0.461212     0.453569     0.445925     0.438282     0.430639     0.422996     0.415353
      0.407710     0.400067     0.392424     0.384780     0.377137     0.369494     0.361851     0.354208     0.346565     0.338922
      0.331278     0.323635     0.315992     0.308349     0.300706     0.293063     0.285420     0.277777     0.270133     0.262490
      0.254847     0.247204     0.239561     0.231918     0.224275     0.216631     0.208988     0.201345
 NY phased data points follow
   1.96942E+00 -1.22429E+00  5.28035E+00  8.48714E-01  1.05579E+00  3.53413E+00  1.17259E+00  2.43598E+00  3.08068E+00  4.81612E+00
   2.16839E+00  2.22284E+00  5.89485E-01 -1.65435E+00 -1.47212E+00  1.50309E+00  3.66523E+00 -1.73947E+00  2.16753E+00  4.45816E+00
   3.41321E-01  1.35943E+00  5.01765E+00  3.26307E+00  7.96648E+00  1.13054E+00  3.28986E-01  1.93919E+00  3.73684E-01 -1.72538E+00
   1.66582E+00 -1.94845E+00  3.54328E-01  6.49507E-02 -1.05670E+00 -7.40086E-02 -2.02492E+00  9.98896E-01 -2.39911E+00  2.75002E+00
   6.92133E-01 -3.75144E+00 -1.68222E+00  6.51637E-01  4.36325E+00 -7.79374E-01  1.98387E+00  5.82361E-01  3.79370E+00 -3.56724E+00
  -1.35173E+00  2.17881E+00  1.76203E-04  5.45130E-01  9.37708E-01  1.45053E+00 -1.64768E+00  1.17102E+00  1.49378E+00 -2.96349E-02
   8.03417E-01 -2.95654E+00  1.15623E+00 -2.63571E+00 -2.05402E+00  1.38992E+00 -2.32583E+00 -1.15864E+00  1.02488E+00  1.54381E+00
  -1.21020E+00 -2.19843E+00  6.83647E-01 -4.39186E+00 -5.35123E+00  1.52458E-02 -2.19408E+00 -2.08654E+00 -3.61718E+00 -2.37056E+00
  -2.40644E+00 -1.70076E+00 -8.41062E-01 -9.78952E-01 -2.98550E+00  3.46798E-01 -2.25391E+00  1.06061E+00 -2.69565E+00  5.99251E-02
  -1.25161E+00 -3.62396E+00 -1.43473E+00  1.36656E+00 -2.95826E+00 -2.71157E+00 -3.33145E+00 -2.35427E+00 -1.30372E+00 -2.44325E+00
  -8.31781E-02 -2.36363E-01  4.11027E+00  1.82317E+00  1.75967E-01 -2.63638E+00 -5.45205E+00  1.95761E+00  2.16908E-01 -3.67080E+00
   2.38000E+00  2.49360E+00  1.82527E+00 -5.29969E-01  2.66593E+00 -2.15960E-01 -1.41255E+00 -1.26535E+00 -3.21046E-01  3.32722E+00
  -2.92048E+00  8.98824E-01 -4.78312E+00 -3.15842E+00 -2.66440E+00 -3.00944E+00 -3.52099E+00 -3.04320E+00 -6.87617E+00 -2.42374E+00
  -8.22723E+00 -8.81808E+00 -4.08723E+00 -5.10659E+00 -3.59007E+00 -7.46058E-01  1.32249E-01 -3.78276E+00 -2.35398E+00 -4.84701E-01
  -3.95201E-01 -4.98705E+00 -6.13859E-01 -2.84694E+00 -7.12314E+00 -3.63292E+00 -2.55177E+00 -7.12962E+00 -5.76454E+00 -7.08894E+00
  -6.79647E+00 -8.83654E+00  6.21366E-01 -7.16452E+00 -5.76725E+00 -6.44662E+00 -4.87895E+00 -8.20262E+00 -3.52843E+00 -9.66909E+00
  -8.24532E+00 -5.14457E+00 -7.64249E+00 -6.63949E+00 -5.86792E+00 -9.49164E+00 -8.00626E+00 -4.93122E+00 -7.38595E+00 -1.12932E+01
  -4.54495E+00 -4.89770E+00 -5.15433E+00 -4.69693E+00 -5.55790E+00 -4.71339E+00 -3.95328E+00 -4.67246E+00 -7.08715E+00 -7.56722E+00
  -3.28438E+00 -2.72309E+00 -5.38412E+00 -3.51437E+00 -6.22552E+00 -4.18355E+00 -3.45517E+00 -3.71760E+00 -5.40104E+00 -2.02548E+00
  -6.11966E+00 -7.82628E+00 -2.77210E+00 -8.55494E+00 -5.09876E+00 -6.95794E+00 -3.44280E+00 -8.72330E+00 -6.92358E+00  2.46516E+00
  -7.23272E+00 -8.44516E+00 -1.30109E+00 -5.56119E+00 -4.92437E+00 -5.61956E+00 -5.59896E+00 -3.64774E+00 -6.95254E+00 -6.63389E+00
  -5.23137E-01 -3.07183E+00 -1.79158E+00 -4.09017E+00 -2.42773E+00 -4.59686E+00 -7.96735E+00 -4.59055E+00 -3.46204E+00 -3.49091E+00
  -6.76458E+00 -2.80951E+00 -6.24747E+00 -2.43201E+00 -2.35369E+00  1.13263E+00 -1.69730E+00 -5.18867E+00 -5.20413E+00 -1.15825E+00
  -5.77091E+00 -2.01253E+00 -3.05443E+00 -3.26081E+00 -4.37883E+00 -9.83312E-01 -6.31230E+00 -7.24961E+00 -6.61460E+00 -1.21740E+00
  -3.95618E+00 -5.62414E+00 -2.19140E+00 -4.65610E+00 -3.48563E+00 -1.12946E+00 -1.57871E+00 -5.18746E+00 -3.41683E+00 -3.69596E+00
  -2.57045E+00 -3.93519E+00 -6.66731E+00 -3.01190E+00 -1.94314E+00 -2.79222E+00 -4.93622E+00 -6.38189E+00 -4.98572E+00 -6.17549E+00
  -5.61593E+00 -6.93136E+00 -8.95609E+00 -7.98271E+00 -6.64612E+00 -5.45280E+00  1.90377E+00 -2.38473E+00 -1.03017E+00 -1.56483E+00
  -8.37771E-01 -3.70637E+00 -2.12288E+00 -6.16578E+00 -4.43008E+00 -7.37615E+00 -3.77692E+00 -8.34440E+00 -7.87297E+00 -9.79889E+00
  -1.15744E+01 -7.85745E+00 -1.28175E+01 -8.63945E+00 -9.81635E+00 -1.23411E+01 -1.20399E+01 -1.10018E+01 -1.00884E+01 -1.15754E+01
  -7.30402E+00 -9.76510E+00 -9.84493E+00 -1.03439E+01 -9.40757E+00 -5.45214E+00 -3.99025E+00 -2.40433E+00 -6.21823E+00 -6.75982E+00
  -6.45861E+00 -6.69615E-01 -2.24927E+00 -5.04569E+00 -7.87271E-01 -3.09623E+00 -2.43077E+00 -4.67447E+00 -3.50047E+00  7.84480E-01
   1.68300E+00  2.47413E+00  3.81790E+00  5.89401E+00  4.27227E+00  4.63438E+00  5.64712E+00  6.97069E+00  8.03263E+00  7.92148E+00
   1.23425E+01  1.22090E+01  1.38550E+01  1.82782E+01  2.23461E+01  2.38408E+01  2.74928E+01  3.07238E+01  3.46049E+01  3.72856E+01
   4.17829E+01  4.91065E+01  4.95577E+01  5.02001E+01  5.62987E+01  6.11534E+01  5.93770E+01  6.46119E+01  6.77080E+01  6.93457E+01
   7.23926E+01  7.13872E+01  7.29583E+01  7.54003E+01  7.43935E+01  7.32216E+01  7.58876E+01  7.25903E+01  7.09514E+01  7.44170E+01
   6.85473E+01  6.98428E+01  6.68899E+01  6.33233E+01  6.24953E+01  5.56431E+01  5.08152E+01  5.43718E+01  4.72333E+01  4.14667E+01
   4.44437E+01  3.64918E+01  3.50709E+01  2.89009E+01  2.56377E+01  2.16523E+01  2.18387E+01  1.72347E+01  1.97390E+01  1.69484E+01
   1.60379E+01  1.47808E+01  1.15284E+01  7.19229E+00  1.22570E+01  1.16785E+01  1.12923E+01  3.07091E+00  9.14170E+00  5.82799E+00
   6.11915E+00  4.70081E+00  2.17407E+00  1.39731E+00  2.27769E+00 -8.69451E-01  3.15074E+00  2.61457E+00  4.11389E+00  4.23673E+00
   1.78326E+00  1.78439E+00  3.62709E+00 -1.08807E+00  1.56083E+00  5.34782E+00  3.56591E+00  2.57380E+00  2.42302E+00  2.93523E+00
   2.13968E+00  2.18494E+00 -1.66303E-01  4.29700E-01  2.70226E+00 -1.82991E+00  3.20019E+00 -8.26102E-01  3.79269E-01  2.89047E+00
  -1.00232E-02  3.25237E+00  1.84580E+00 -6.45177E-01  2.58232E+00  2.19893E+00  1.73310E+00  3.32705E-01 -8.75198E-01 -2.24674E+00
   1.00017E-01  7.34954E-01 -2.60161E+00 -5.47638E-01 -2.26598E+00  1.21453E+00 -2.98351E-01  4.11717E+00 -4.68212E+00 -1.71128E+00
  -4.34558E+00 -4.38906E+00 -3.88305E+00 -4.42754E+00 -1.89515E+00 -3.94245E+00 -8.45928E-01 -2.50136E-01 -3.36055E+00 -3.37008E+00
  -2.40016E+00 -4.09091E+00 -3.27193E+00 -3.57899E+00 -2.26718E+00 -4.95728E+00 -4.28603E+00 -3.01968E+00 -2.42724E+00 -3.07622E+00
  -5.54224E+00 -3.88290E+00 -3.48461E+00 -6.17315E+00 -2.80068E+00 -3.93064E+00  1.51252E+00 -1.58162E+00  1.27225E-02  2.04625E+00
  -3.00863E+00 -1.39589E+00 -5.27472E-01  1.31271E+00 -2.93789E-01  9.07428E-01  3.07465E+00 -1.82111E+00  1.14857E+00 -1.52214E+00
  -2.17155E+00 -2.43024E+00 -1.57572E+00 -2.21272E+00  4.45633E-01  1.84205E+00 -2.55614E+00 -3.26349E-01 -2.16166E+00 -2.55306E+00
  -2.45308E+00  1.13974E+00  1.19471E+00 -5.86651E+00 -1.32732E+00 -9.98823E-01 -2.06445E-02 -1.90162E+00 -1.32079E+00  1.35396E+00
  -1.33974E+00 -1.77421E+00  1.21118E+00 -5.06801E+00  2.20787E-01 -3.47214E+00  1.58657E+00 -3.71759E+00
 NY points of the fit to the data follow
   4.98353E+00  4.70044E+00  4.38151E+00  4.18844E+00  3.82127E+00  3.52796E+00  3.08044E+00  2.65741E+00  2.51195E+00  2.31889E+00
   2.06218E+00  1.67018E+00  1.35145E+00  1.16706E+00  1.15823E+00  1.25146E+00  1.36244E+00  1.73647E+00  2.00356E+00  2.73097E+00
   2.95991E+00  3.51641E+00  3.46752E+00  3.38009E+00  2.68006E+00  1.52741E+00  6.35771E-01 -5.41925E-01 -6.89408E-02  1.83286E-01
   4.87588E-01  5.91713E-01  7.49534E-01  7.26988E-01  6.98138E-01  5.05330E-01  2.84394E-01  1.18500E-01 -1.42797E-01 -1.98049E-01
  -2.14971E-01 -8.50442E-02  2.11548E-01  3.60978E-01  4.48225E-01  4.34070E-01  4.37170E-01  2.09667E-01  1.02810E-01 -1.87346E-01
  -3.02982E-01 -3.66799E-01 -3.99170E-01 -4.62514E-01 -4.42979E-01 -4.97282E-01 -4.42746E-01 -4.75682E-01 -5.27759E-01 -5.78019E-01
  -6.05934E-01 -6.33074E-01 -6.93298E-01 -7.48370E-01 -8.28528E-01 -8.99411E-01 -9.61657E-01 -1.00269E+00 -1.04585E+00 -1.08543E+00
  -1.12323E+00 -1.17009E+00 -1.20051E+00 -1.25308E+00 -1.28846E+00 -1.35404E+00 -1.38187E+00 -1.44126E+00 -1.46865E+00 -1.53676E+00
  -1.57304E+00 -1.61905E+00 -1.64488E+00 -1.63986E+00 -1.62868E+00 -1.64832E+00 -1.67247E+00 -1.71041E+00 -1.78541E+00 -1.83709E+00
  -1.88752E+00 -1.92691E+00 -1.92833E+00 -1.89347E+00 -1.89126E+00 -1.88047E+00 -1.88749E+00 -1.91200E+00 -1.93484E+00 -1.94385E+00
  -1.94848E+00 -1.94714E+00 -1.93207E+00 -1.90706E+00 -1.86591E+00 -1.82260E+00 -1.73696E+00 -1.63793E+00 -1.48142E+00 -1.28821E+00
  -1.01671E+00 -6.29676E-01  1.35359E-01  1.53308E+00  1.28930E+00  1.34227E+00  6.35803E-01 -8.32430E-03 -4.93014E-01 -8.64630E-01
  -1.22881E+00 -1.55545E+00 -1.93178E+00 -2.39698E+00 -2.67193E+00 -3.03468E+00 -3.43355E+00 -4.13291E+00 -4.31361E+00 -4.73019E+00
  -4.51481E+00 -4.36507E+00 -3.92944E+00 -3.44797E+00 -2.79839E+00 -1.83041E+00 -1.23243E+00 -1.64016E-01 -9.06610E-02  2.60123E-01
  -6.70964E-01 -2.00279E+00 -3.16644E+00 -5.06690E+00 -4.93603E+00 -4.66393E+00 -4.52832E+00 -4.43002E+00 -4.39292E+00 -4.35309E+00
  -4.35070E+00 -4.35107E+00 -4.41191E+00 -4.42696E+00 -4.52676E+00 -4.58167E+00 -4.69201E+00 -4.72465E+00 -4.84106E+00 -4.91890E+00
  -5.06731E+00 -5.20952E+00 -5.36832E+00 -5.45833E+00 -5.60327E+00 -5.68447E+00 -5.82857E+00 -5.93576E+00 -6.05804E+00 -6.13396E+00
  -6.16949E+00 -6.27841E+00 -6.37725E+00 -6.50637E+00 -6.57412E+00 -6.65098E+00 -6.64567E+00 -6.70948E+00 -6.75266E+00 -6.86356E+00
  -6.92905E+00 -7.00245E+00 -7.04289E+00 -7.06675E+00 -7.10547E+00 -7.10321E+00 -7.12156E+00 -7.14915E+00 -7.17340E+00 -7.13622E+00
  -7.14313E+00 -7.09768E+00 -7.11711E+00 -7.14118E+00 -7.16055E+00 -7.20045E+00 -7.12091E+00 -7.03045E+00 -6.91479E+00 -6.83652E+00
  -6.78171E+00 -6.73295E+00 -6.66189E+00 -6.61595E+00 -6.56965E+00 -6.51210E+00 -6.44512E+00 -6.32011E+00 -6.19194E+00 -5.93561E+00
  -5.73573E+00 -5.52789E+00 -5.34228E+00 -5.22708E+00 -5.13806E+00 -5.10221E+00 -5.13258E+00 -5.15523E+00 -5.18710E+00 -5.18934E+00
  -5.16009E+00 -5.08265E+00 -4.98382E+00 -4.76308E+00 -4.60153E+00 -4.35462E+00 -4.22773E+00 -4.15780E+00 -4.18866E+00 -4.10696E+00
  -4.10297E+00 -4.02548E+00 -3.97520E+00 -3.86928E+00 -3.82363E+00 -3.71962E+00 -3.63697E+00 -3.51490E+00 -3.38121E+00 -3.22354E+00
  -2.97105E+00 -2.33081E+00 -1.22260E+00 -1.37477E+00 -6.38154E-01 -1.14575E+00 -4.98121E-01 -1.00554E+00 -6.76598E-01 -1.27924E+00
  -1.23095E+00 -1.90387E+00 -1.98212E+00 -2.62726E+00 -2.79521E+00 -3.61168E+00 -4.11087E+00 -4.69297E+00 -5.13392E+00 -5.36631E+00
  -5.80021E+00 -5.80572E+00 -6.02014E+00 -5.76795E+00 -5.46625E+00 -5.16264E+00 -4.43783E+00 -4.49695E+00 -3.65995E+00 -4.51151E+00
  -4.45410E+00 -5.65921E+00 -6.44134E+00 -6.72337E+00 -6.97931E+00 -7.29089E+00 -7.83968E+00 -7.95298E+00 -7.93246E+00 -7.92026E+00
  -7.87134E+00 -7.82473E+00 -7.75468E+00 -7.67596E+00 -7.57375E+00 -7.49004E+00 -7.37608E+00 -7.28918E+00 -7.17015E+00 -7.05251E+00
  -6.88943E+00 -6.72068E+00 -6.50614E+00 -6.27086E+00 -6.02229E+00 -5.76414E+00 -5.48222E+00 -5.19679E+00 -4.87802E+00 -4.55836E+00
  -4.19596E+00 -3.80694E+00 -3.38153E+00 -2.92541E+00 -2.41786E+00 -1.88580E+00 -1.30111E+00 -6.81169E-01 -1.30255E-02  7.22562E-01
   1.54835E+00  2.48021E+00  3.60115E+00  5.00039E+00  5.97295E+00  6.59003E+00  7.59984E+00  8.08235E+00  9.40270E+00  1.02877E+01
   1.18256E+01  1.34206E+01  1.62458E+01  1.80623E+01  2.13144E+01  2.33022E+01  2.64975E+01  2.86843E+01  3.21972E+01  3.50193E+01
   3.89439E+01  4.24024E+01  4.65585E+01  5.06431E+01  5.49101E+01  5.81075E+01  6.16882E+01  6.41142E+01  6.68887E+01  6.85225E+01
   7.04164E+01  7.11528E+01  7.30081E+01  7.29870E+01  7.47239E+01  7.50499E+01  7.61420E+01  7.52671E+01  7.57194E+01  7.38981E+01
   7.29862E+01  7.01529E+01  6.71894E+01  6.40890E+01  6.10992E+01  5.77787E+01  5.44076E+01  5.07450E+01  4.71115E+01  4.30504E+01
   3.93512E+01  3.48245E+01  3.11695E+01  2.71955E+01  2.42492E+01  2.20883E+01  2.03038E+01  1.85172E+01  1.75072E+01  1.57834E+01
   1.47754E+01  1.28794E+01  1.11977E+01  9.88749E+00  8.79341E+00  7.86242E+00  7.06314E+00  6.38005E+00  5.79533E+00  5.30003E+00
   4.88017E+00  4.52962E+00  4.23658E+00  3.99689E+00  3.80041E+00  3.64431E+00  3.51951E+00  3.42425E+00  3.35042E+00  3.29721E+00
   3.25729E+00  3.23055E+00  3.21020E+00  3.19678E+00  3.18410E+00  3.17333E+00  3.15881E+00  3.14220E+00  3.11827E+00  3.08922E+00
   3.05033E+00  3.00434E+00  2.94694E+00  2.88128E+00  2.80340E+00  2.71692E+00  2.61828E+00  2.51145E+00  2.39313E+00  2.26752E+00
   2.13153E+00  1.98963E+00  1.83890E+00  1.68396E+00  1.52191E+00  1.35742E+00  1.18762E+00  1.01724E+00  8.43377E-01  6.70709E-01
   4.96213E-01  3.24486E-01  1.52424E-01 -1.54352E-02 -1.82333E-01 -3.43863E-01 -5.03436E-01 -6.56728E-01 -8.07256E-01 -9.50777E-01
  -1.09096E+00 -1.22367E+00 -1.35269E+00 -1.47396E+00 -1.59133E+00 -1.70077E+00 -1.80627E+00 -1.90388E+00 -1.99761E+00 -2.08352E+00
  -2.16570E+00 -2.24022E+00 -2.31122E+00 -2.37482E+00 -2.43516E+00 -2.48834E+00 -2.53854E+00 -2.58185E+00 -2.62251E+00 -2.65659E+00
  -2.68832E+00 -2.71375E+00 -2.73711E+00 -2.75449E+00 -2.77011E+00 -2.78004E+00 -2.78848E+00 -2.79148E+00 -2.79326E+00 -2.78987E+00
  -2.78555E+00 -2.77629E+00 -2.76632E+00 -2.75163E+00 -2.73646E+00 -2.71681E+00 -2.69690E+00 -2.67269E+00 -2.64841E+00 -2.62000E+00
  -2.59173E+00 -2.55952E+00 -2.52762E+00 -2.49191E+00 -2.45666E+00 -2.41777E+00 -2.37950E+00 -2.33774E+00 -2.29673E+00 -2.25233E+00
  -2.20881E+00 -2.16205E+00 -2.11630E+00 -2.06742E+00 -2.01965E+00 -1.96884E+00 -1.91926E+00 -1.86676E+00 -1.81561E+00 -1.76163E+00
  -1.70908E+00 -1.65379E+00 -1.60004E+00 -1.54368E+00 -1.48896E+00 -1.43170E+00 -1.37619E+00 -1.31827E+00
 NY background values follow
    -4.923E+00   -5.017E+00   -5.110E+00   -5.203E+00   -5.295E+00   -5.388E+00   -5.480E+00   -5.572E+00   -5.664E+00   -5.756E+00
    -5.847E+00   -5.939E+00   -6.030E+00   -6.121E+00   -6.212E+00   -6.302E+00   -6.392E+00   -6.483E+00   -6.573E+00   -6.662E+00
    -6.752E+00   -6.841E+00   -6.930E+00   -7.019E+00   -7.108E+00   -7.196E+00   -7.285E+00   -7.373E+00   -7.461E+00   -7.548E+00
    -7.636E+00   -7.723E+00   -7.810E+00   -7.897E+00   -7.983E+00   -8.070E+00   -8.156E+00   -8.242E+00   -8.328E+00   -8.413E+00
    -8.498E+00   -8.584E+00   -8.668E+00   -8.753E+00   -8.837E+00   -8.922E+00   -9.006E+00   -9.089E+00   -9.173E+00   -9.256E+00
    -9.339E+00   -9.422E+00   -9.505E+00   -9.587E+00   -9.670E+00   -9.752E+00   -9.833E+00   -9.915E+00   -9.996E+00   -1.008E+01
    -1.016E+01   -1.024E+01   -1.032E+01   -1.040E+01   -1.048E+01   -1.056E+01   -1.064E+01   -1.072E+01   -1.080E+01   -1.088E+01
    -1.095E+01   -1.103E+01   -1.111E+01   -1.119E+01   -1.127E+01   -1.134E+01   -1.142E+01   -1.150E+01   -1.157E+01   -1.165E+01
    -1.173E+01   -1.180E+01   -1.188E+01   -1.196E+01   -1.203E+01   -1.211E+01   -1.218E+01   -1.226E+01   -1.233E+01   -1.240E+01
    -1.248E+01   -1.255E+01   -1.263E+01   -1.270E+01   -1.277E+01   -1.285E+01   -1.292E+01   -1.299E+01   -1.306E+01   -1.313E+01
    -1.321E+01   -1.328E+01   -1.335E+01   -1.342E+01   -1.349E+01   -1.356E+01   -1.363E+01   -1.370E+01   -1.377E+01   -1.384E+01
    -1.391E+01   -1.398E+01   -1.405E+01   -1.412E+01   -1.419E+01   -1.425E+01   -1.432E+01   -1.439E+01   -1.446E+01   -1.452E+01
    -1.459E+01   -1.466E+01   -1.472E+01   -1.479E+01   -1.485E+01   -1.492E+01   -1.499E+01   -1.505E+01   -1.511E+01   -1.518E+01
    -1.524E+01   -1.531E+01   -1.537E+01   -1.543E+01   -1.550E+01   -1.556E+01   -1.562E+01   -1.568E+01   -1.575E+01   -1.581E+01
    -1.587E+01   -1.593E+01   -1.599E+01   -1.605E+01   -1.611E+01   -1.617E+01   -1.623E+01   -1.629E+01   -1.635E+01   -1.641E+01
    -1.646E+01   -1.652E+01   -1.658E+01   -1.664E+01   -1.670E+01   -1.675E+01   -1.681E+01   -1.687E+01   -1.692E+01   -1.698E+01
    -1.703E+01   -1.709E+01   -1.715E+01   -1.720E+01   -1.726E+01   -1.731E+01   -1.736E+01   -1.742E+01   -1.747E+01   -1.753E+01
    -1.758E+01   -1.763E+01   -1.769E+01   -1.774E+01   -1.779E+01   -1.784E+01   -1.790E+01   -1.795E+01   -1.800E+01   -1.805E+01
    -1.810E+01   -1.815E+01   -1.821E+01   -1.826E+01   -1.831E+01   -1.836E+01   -1.841E+01   -1.846E+01   -1.851E+01   -1.856E+01
    -1.861E+01   -1.866E+01   -1.871E+01   -1.875E+01   -1.880E+01   -1.885E+01   -1.890E+01   -1.895E+01   -1.899E+01   -1.904E+01
    -1.909E+01   -1.914E+01   -1.918E+01   -1.923E+01   -1.927E+01   -1.932E+01   -1.937E+01   -1.941E+01   -1.946E+01   -1.950E+01
    -1.955E+01   -1.959E+01   -1.963E+01   -1.968E+01   -1.972E+01   -1.976E+01   -1.981E+01   -1.985E+01   -1.989E+01   -1.993E+01
    -1.997E+01   -2.001E+01   -2.006E+01   -2.010E+01   -2.014E+01   -2.018E+01   -2.022E+01   -2.025E+01   -2.029E+01   -2.033E+01
    -2.037E+01   -2.041E+01   -2.044E+01   -2.048E+01   -2.052E+01   -2.055E+01   -2.059E+01   -2.062E+01   -2.066E+01   -2.069E+01
    -2.073E+01   -2.076E+01   -2.079E+01   -2.083E+01   -2.086E+01   -2.089E+01   -2.092E+01   -2.095E+01   -2.098E+01   -2.101E+01
    -2.104E+01   -2.107E+01   -2.110E+01   -2.112E+01   -2.115E+01   -2.118E+01   -2.120E+01   -2.123E+01   -2.125E+01   -2.127E+01
    -2.130E+01   -2.132E+01   -2.134E+01   -2.136E+01   -2.138E+01   -2.140E+01   -2.142E+01   -2.144E+01   -2.146E+01   -2.148E+01
    -2.149E+01   -2.151E+01   -2.152E+01   -2.154E+01   -2.155E+01   -2.156E+01   -2.157E+01   -2.159E+01   -2.160E+01   -2.161E+01
    -2.161E+01   -2.162E+01   -2.163E+01   -2.164E+01   -2.164E+01   -2.165E+01   -2.165E+01   -2.165E+01   -2.166E+01   -2.166E+01
    -2.166E+01   -2.166E+01   -2.166E+01   -2.166E+01   -2.166E+01   -2.165E+01   -2.165E+01   -2.165E+01   -2.164E+01   -2.164E+01
    -2.163E+01   -2.162E+01   -2.161E+01   -2.160E+01   -2.160E+01   -2.158E+01   -2.157E+01   -2.156E+01   -2.155E+01   -2.153E+01
    -2.152E+01   -2.150E+01   -2.149E+01   -2.147E+01   -2.145E+01   -2.144E+01   -2.142E+01   -2.140E+01   -2.137E+01   -2.135E+01
    -2.133E+01   -2.131E+01   -2.128E+01   -2.126E+01   -2.123E+01   -2.121E+01   -2.118E+01   -2.115E+01   -2.112E+01   -2.109E+01
    -2.106E+01   -2.103E+01   -2.100E+01   -2.097E+01   -2.093E+01   -2.090E+01   -2.086E+01   -2.083E+01   -2.079E+01   -2.076E+01
    -2.072E+01   -2.068E+01   -2.064E+01   -2.060E+01   -2.056E+01   -2.052E+01   -2.048E+01   -2.043E+01   -2.039E+01   -2.035E+01
    -2.030E+01   -2.026E+01   -2.021E+01   -2.016E+01   -2.011E+01   -2.007E+01   -2.002E+01   -1.997E+01   -1.992E+01   -1.987E+01
    -1.981E+01   -1.976E+01   -1.971E+01   -1.966E+01   -1.960E+01   -1.955E+01   -1.949E+01   -1.943E+01   -1.938E+01   -1.932E+01
    -1.926E+01   -1.920E+01   -1.914E+01   -1.908E+01   -1.902E+01   -1.896E+01   -1.890E+01   -1.884E+01   -1.877E+01   -1.871E+01
    -1.864E+01   -1.858E+01   -1.851E+01   -1.845E+01   -1.838E+01   -1.831E+01   -1.824E+01   -1.817E+01   -1.810E+01   -1.803E+01
    -1.796E+01   -1.789E+01   -1.782E+01   -1.775E+01   -1.767E+01   -1.760E+01   -1.752E+01   -1.745E+01   -1.737E+01   -1.729E+01
    -1.722E+01   -1.714E+01   -1.706E+01   -1.698E+01   -1.690E+01   -1.682E+01   -1.674E+01   -1.666E+01   -1.658E+01   -1.649E+01
    -1.641E+01   -1.632E+01   -1.624E+01   -1.615E+01   -1.607E+01   -1.598E+01   -1.589E+01   -1.581E+01   -1.572E+01   -1.563E+01
    -1.554E+01   -1.545E+01   -1.536E+01   -1.527E+01   -1.518E+01   -1.509E+01   -1.500E+01   -1.490E+01   -1.481E+01   -1.472E+01
    -1.462E+01   -1.453E+01   -1.444E+01   -1.434E+01   -1.425E+01   -1.415E+01   -1.406E+01   -1.396E+01   -1.386E+01   -1.377E+01
    -1.367E+01   -1.357E+01   -1.348E+01   -1.338E+01   -1.328E+01   -1.318E+01   -1.308E+01   -1.299E+01   -1.289E+01   -1.279E+01
    -1.269E+01   -1.259E+01   -1.249E+01   -1.239E+01   -1.229E+01   -1.219E+01   -1.209E+01   -1.199E+01   -1.189E+01   -1.179E+01
    -1.169E+01   -1.159E+01   -1.149E+01   -1.139E+01   -1.129E+01   -1.119E+01   -1.109E+01   -1.099E+01   -1.089E+01   -1.079E+01
    -1.069E+01   -1.058E+01   -1.048E+01   -1.038E+01   -1.028E+01   -1.018E+01   -1.008E+01   -9.981E+00   -9.881E+00   -9.781E+00
    -9.681E+00   -9.581E+00   -9.481E+00   -9.381E+00   -9.281E+00   -9.182E+00   -9.082E+00   -8.983E+00   -8.884E+00   -8.785E+00
    -8.686E+00   -8.588E+00   -8.489E+00   -8.391E+00   -8.293E+00   -8.195E+00   -8.098E+00   -8.000E+00
 Ala      Conc. = 2.59E+02
