 LCModel (Version 6.3-1L) Copyright: S.W. Provencher.          Ref.: Magn. Reson. Med. 30:672-679 (1993).                
 Slice#3 Row#5 Col#4  K_02_press_1_raw_act
 36 lines in following concentration table = NCONC+1
    Conc.  %SD /Cr+PCr  Metabolite                                         
    0.000 999%   0.000 Ala                                                 
    0.000 999%   0.000 Asp                                                 
  911.503  26%   0.476 Cr                                                  
 1.00E+03  24%   0.524 PCr                                                 
    0.000 999%   0.000 GABA                                                
    0.000 999%   0.000 Glc                                                 
  205.808 112%   0.107 Gln                                                 
 1.48E+03  17%   0.772 Glu                                                 
  528.769   4%   0.276 GPC                                                 
    0.000 999%   0.000 PCh                                                 
  399.675  19%   0.209 GSH                                                 
  561.811  47%   0.293 Ins                                                 
    0.000 999%   0.000 Lac                                                 
 2.22E+03   5%   1.157 NAA                                                 
  417.509  29%   0.218 NAAG                                                
    0.000 999%   0.000 Scyllo                                              
    0.000 999%   0.000 Tau                                                 
    0.000 999%   0.000 -CrCH2                                              
  528.769   4%   0.276 GPC+PCh                                             
 2.63E+03   4%   1.375 NAA+NAAG                                            
 1.92E+03   3%   1.000 Cr+PCr                                              
 1.68E+03  21%   0.879 Glu+Gln                                             
    0.000 999%   0.000 Lip13a                                              
    0.000 999%   0.000 Lip13b                                              
    0.000 999%   0.000 Lip09                                               
 2.07E+03  14%   1.080 MM09                                                
    0.000 999%   0.000 Lip20                                               
 4.99E+03  12%   2.604 MM20                                                
    0.000 999%   0.000 MM12                                                
    0.000 999%   0.000 MM14                                                
 4.24E+03  14%   2.213+MM17                                                
    0.000 999%   0.000 Lip13a+Lip13b                                       
    0.000 999%   0.000 MM14+Lip13a+Lip13b+MM12                             
 2.07E+03  14%   1.080 MM09+Lip09                                          
 4.99E+03  12%   2.604 MM20+Lip20                                          
   6 lines in following misc. output table
  FWHM = 0.046 ppm    S/N =  13                                            
  Data shift = 0.031 ppm                                                   
  Ph:  26 deg       0.0 deg/ppm                                            
  alphaB,S = 3.0E-01,   8.9E+01                                            
   14 spline knots.   Ns = 6(1)                                            
  ( 9) 2 infls.   ( 3) 1 extrs.                                            
  498 points on ppm-axis = NY
      4.000000     3.992357     3.984714     3.977070     3.969427     3.961784     3.954141     3.946497     3.938854     3.931211
      3.923568     3.915925     3.908281     3.900638     3.892995     3.885352     3.877708     3.870065     3.862422     3.854779
      3.847136     3.839492     3.831849     3.824206     3.816563     3.808919     3.801276     3.793633     3.785990     3.778347
      3.770703     3.763060     3.755417     3.747774     3.740130     3.732487     3.724844     3.717201     3.709558     3.701914
      3.694271     3.686628     3.678985     3.671341     3.663698     3.656055     3.648412     3.640769     3.633125     3.625482
      3.617839     3.610196     3.602552     3.594909     3.587266     3.579623     3.571980     3.564336     3.556693     3.549050
      3.541407     3.533763     3.526120     3.518477     3.510834     3.503191     3.495547     3.487904     3.480261     3.472618
      3.464974     3.457331     3.449688     3.442045     3.434402     3.426758     3.419115     3.411472     3.403829     3.396185
      3.388542     3.380899     3.373256     3.365613     3.357969     3.350326     3.342683     3.335040     3.327396     3.319753
      3.312110     3.304467     3.296824     3.289180     3.281537     3.273894     3.266251     3.258607     3.250964     3.243321
      3.235678     3.228034     3.220391     3.212748     3.205105     3.197462     3.189818     3.182175     3.174532     3.166889
      3.159245     3.151602     3.143959     3.136316     3.128673     3.121029     3.113386     3.105743     3.098100     3.090456
      3.082813     3.075170     3.067527     3.059884     3.052240     3.044597     3.036954     3.029311     3.021667     3.014024
      3.006381     2.998738     2.991095     2.983451     2.975808     2.968165     2.960522     2.952878     2.945235     2.937592
      2.929949     2.922306     2.914662     2.907019     2.899376     2.891733     2.884089     2.876446     2.868803     2.861160
      2.853517     2.845873     2.838230     2.830587     2.822944     2.815300     2.807657     2.800014     2.792371     2.784728
      2.777084     2.769441     2.761798     2.754155     2.746511     2.738868     2.731225     2.723582     2.715939     2.708295
      2.700652     2.693009     2.685366     2.677722     2.670079     2.662436     2.654793     2.647150     2.639506     2.631863
      2.624220     2.616577     2.608933     2.601290     2.593647     2.586004     2.578361     2.570717     2.563074     2.555431
      2.547788     2.540144     2.532501     2.524858     2.517215     2.509572     2.501928     2.494285     2.486642     2.478999
      2.471355     2.463712     2.456069     2.448426     2.440783     2.433139     2.425496     2.417853     2.410210     2.402566
      2.394923     2.387280     2.379637     2.371994     2.364350     2.356707     2.349064     2.341421     2.333777     2.326134
      2.318491     2.310848     2.303205     2.295561     2.287918     2.280275     2.272632     2.264988     2.257345     2.249702
      2.242059     2.234416     2.226772     2.219129     2.211486     2.203843     2.196199     2.188556     2.180913     2.173270
      2.165627     2.157983     2.150340     2.142697     2.135054     2.127410     2.119767     2.112124     2.104481     2.096838
      2.089194     2.081551     2.073908     2.066265     2.058621     2.050978     2.043335     2.035692     2.028049     2.020405
      2.012762     2.005119     1.997476     1.989833     1.982190     1.974546     1.966903     1.959260     1.951617     1.943974
      1.936331     1.928688     1.921045     1.913402     1.905759     1.898115     1.890472     1.882829     1.875186     1.867543
      1.859900     1.852257     1.844614     1.836971     1.829327     1.821684     1.814041     1.806398     1.798755     1.791112
      1.783469     1.775826     1.768183     1.760540     1.752896     1.745253     1.737610     1.729967     1.722324     1.714681
      1.707038     1.699395     1.691752     1.684108     1.676465     1.668822     1.661179     1.653536     1.645893     1.638250
      1.630607     1.622964     1.615321     1.607677     1.600034     1.592391     1.584748     1.577105     1.569462     1.561819
      1.554176     1.546533     1.538890     1.531246     1.523603     1.515960     1.508317     1.500674     1.493031     1.485388
      1.477745     1.470102     1.462458     1.454815     1.447172     1.439529     1.431886     1.424243     1.416600     1.408957
      1.401314     1.393671     1.386027     1.378384     1.370741     1.363098     1.355455     1.347812     1.340169     1.332526
      1.324883     1.317240     1.309596     1.301953     1.294310     1.286667     1.279024     1.271381     1.263738     1.256095
      1.248452     1.240808     1.233165     1.225522     1.217879     1.210236     1.202593     1.194950     1.187307     1.179664
      1.172021     1.164377     1.156734     1.149091     1.141448     1.133805     1.126162     1.118519     1.110876     1.103233
      1.095590     1.087946     1.080303     1.072660     1.065017     1.057374     1.049731     1.042088     1.034445     1.026802
      1.019158     1.011515     1.003872     0.996229     0.988586     0.980943     0.973300     0.965657     0.958014     0.950371
      0.942727     0.935084     0.927441     0.919798     0.912155     0.904512     0.896869     0.889226     0.881583     0.873940
      0.866296     0.858653     0.851010     0.843367     0.835724     0.828081     0.820438     0.812795     0.805152     0.797508
      0.789865     0.782222     0.774579     0.766936     0.759293     0.751650     0.744007     0.736364     0.728721     0.721077
      0.713434     0.705791     0.698148     0.690505     0.682862     0.675219     0.667576     0.659933     0.652290     0.644646
      0.637003     0.629360     0.621717     0.614074     0.606431     0.598788     0.591145     0.583502     0.575858     0.568215
      0.560572     0.552929     0.545286     0.537643     0.530000     0.522357     0.514714     0.507071     0.499427     0.491784
      0.484141     0.476498     0.468855     0.461212     0.453569     0.445925     0.438282     0.430639     0.422996     0.415353
      0.407710     0.400067     0.392424     0.384780     0.377137     0.369494     0.361851     0.354208     0.346565     0.338922
      0.331278     0.323635     0.315992     0.308349     0.300706     0.293063     0.285420     0.277777     0.270133     0.262490
      0.254847     0.247204     0.239561     0.231918     0.224275     0.216631     0.208988     0.201345
 NY phased data points follow
   7.94582E+01  7.84923E+01  8.27937E+01  8.29935E+01  8.60869E+01  9.33829E+01  9.42966E+01  1.04818E+02  1.11618E+02  1.17965E+02
   1.16839E+02  1.16550E+02  1.10186E+02  9.57186E+01  9.22872E+01  8.67432E+01  7.47825E+01  7.39638E+01  7.41554E+01  6.73106E+01
   6.66831E+01  7.06157E+01  6.89393E+01  6.80680E+01  6.34150E+01  6.40926E+01  6.54616E+01  6.46094E+01  6.66054E+01  6.65883E+01
   7.08988E+01  6.98114E+01  7.00202E+01  6.87967E+01  6.36054E+01  6.04199E+01  6.30270E+01  5.76144E+01  6.05239E+01  6.10809E+01
   5.88433E+01  5.82961E+01  5.51868E+01  6.04022E+01  5.81417E+01  6.20285E+01  6.21951E+01  6.45612E+01  6.23921E+01  5.96634E+01
   5.63718E+01  5.65104E+01  4.90818E+01  5.35618E+01  5.03167E+01  5.27968E+01  4.95883E+01  4.89830E+01  4.64960E+01  5.12349E+01
   4.49161E+01  4.27011E+01  3.86610E+01  4.08695E+01  3.72658E+01  3.61661E+01  3.13658E+01  3.47684E+01  3.18596E+01  3.61163E+01
   3.25809E+01  3.78876E+01  3.53799E+01  3.32993E+01  3.51364E+01  3.68966E+01  3.20113E+01  3.23149E+01  2.98661E+01  3.54393E+01
   2.79478E+01  2.97860E+01  3.47596E+01  3.32251E+01  2.81709E+01  2.86150E+01  3.31581E+01  2.90511E+01  3.19738E+01  2.82150E+01
   3.35860E+01  3.42808E+01  3.60260E+01  3.44139E+01  3.45990E+01  3.73556E+01  3.54443E+01  3.91962E+01  4.92428E+01  5.30098E+01
   6.11836E+01  7.71424E+01  8.03553E+01  8.20494E+01  7.80835E+01  6.62781E+01  5.80114E+01  5.05167E+01  4.47289E+01  4.12269E+01
   3.40840E+01  3.50892E+01  3.50485E+01  3.21663E+01  3.14977E+01  3.22088E+01  3.51947E+01  3.55660E+01  3.48699E+01  3.30235E+01
   3.92000E+01  4.48918E+01  4.48451E+01  5.29393E+01  6.82646E+01  8.19397E+01  9.45967E+01  9.43093E+01  8.66922E+01  7.56591E+01
   6.38744E+01  5.41706E+01  4.81663E+01  4.26469E+01  3.62793E+01  3.15491E+01  2.75858E+01  2.74433E+01  2.97360E+01  2.70243E+01
   2.97160E+01  2.75819E+01  2.72484E+01  2.54564E+01  2.96195E+01  2.71712E+01  2.53206E+01  2.49722E+01  2.74188E+01  2.68294E+01
   2.09620E+01  2.25509E+01  2.26096E+01  2.33260E+01  1.72779E+01  2.11136E+01  1.92859E+01  2.49729E+01  1.97161E+01  2.17671E+01
   1.61503E+01  1.40558E+01  1.13873E+01  1.32640E+01  1.71914E+01  2.04471E+01  1.48138E+01  1.68991E+01  1.51186E+01  1.41180E+01
   1.11278E+01  1.00916E+01  1.20543E+01  7.01561E+00  2.62014E+00  1.85977E+00  6.83270E+00  8.83022E+00  7.80647E+00  8.28081E+00
   7.64045E+00  1.09374E+00  5.19541E+00  1.05514E+01  1.09533E+01  5.52637E+00  1.00248E+01  1.41760E+01  1.45568E+01  1.83922E+01
   2.38726E+01  2.73861E+01  2.80353E+01  2.67905E+01  2.47647E+01  2.27073E+01  2.18189E+01  1.66998E+01  1.23917E+01  1.42871E+01
   1.53881E+01  1.69527E+01  2.19909E+01  2.30275E+01  1.69212E+01  1.78888E+01  1.29778E+01  1.47261E+01  1.29868E+01  1.43691E+01
   1.28488E+01  1.06331E+01  2.31919E+01  2.46062E+01  2.54894E+01  2.76144E+01  2.56634E+01  2.71800E+01  1.94399E+01  1.32371E+01
   1.56486E+01  1.21270E+01  1.28568E+01  1.59236E+01  1.68573E+01  2.14709E+01  2.51523E+01  2.73534E+01  2.39473E+01  2.19696E+01
   2.53429E+01  1.80242E+01  2.43823E+01  2.41972E+01  2.21088E+01  2.12859E+01  2.40296E+01  2.33267E+01  1.99365E+01  1.63189E+01
   2.10102E+01  1.97881E+01  2.08377E+01  2.13114E+01  2.70252E+01  2.92516E+01  2.94586E+01  2.94807E+01  3.17697E+01  3.32374E+01
   3.90027E+01  3.96272E+01  4.59456E+01  4.65728E+01  5.00736E+01  5.94838E+01  6.75358E+01  8.10938E+01  9.46507E+01  1.19080E+02
   1.25808E+02  1.08165E+02  8.53913E+01  6.91116E+01  4.88898E+01  4.62251E+01  3.21013E+01  2.71464E+01  2.34460E+01  2.50748E+01
   2.58609E+01  2.25211E+01  2.07833E+01  2.24258E+01  2.18652E+01  2.03008E+01  1.93461E+01  1.76513E+01  2.13357E+01  2.14175E+01
   1.75266E+01  1.59148E+01  2.34623E+01  1.66365E+01  2.15889E+01  2.05769E+01  1.81600E+01  1.82190E+01  1.94419E+01  2.17785E+01
   1.74108E+01  1.97955E+01  1.93204E+01  1.63428E+01  1.81956E+01  1.58751E+01  2.02265E+01  1.86550E+01  1.83737E+01  2.18497E+01
   2.09629E+01  1.69422E+01  2.16595E+01  1.65519E+01  1.74899E+01  1.67975E+01  2.05705E+01  2.05215E+01  2.02429E+01  1.85071E+01
   1.75744E+01  1.99366E+01  1.75372E+01  2.10348E+01  1.88500E+01  2.07370E+01  2.00580E+01  1.69438E+01  1.74529E+01  1.90427E+01
   1.25624E+01  1.52964E+01  1.38325E+01  1.19899E+01  1.26794E+01  1.27381E+01  1.12416E+01  7.81390E+00  6.63293E+00  4.56063E+00
   5.55102E+00  7.49873E+00  6.93951E+00  4.96298E+00  3.38058E+00  4.86710E+00  9.81125E+00  2.31036E+00  9.39102E-01 -3.62591E+00
  -4.42333E+00 -7.58530E+00 -5.41031E+00 -9.56958E+00 -8.26903E+00 -8.09844E+00 -8.34292E+00 -9.06126E+00 -1.35781E+01 -9.19095E+00
  -1.17706E+01 -1.36767E+01 -1.36981E+01 -8.89187E+00 -9.84976E+00 -1.55735E+01 -1.57589E+01 -1.44071E+01 -1.16814E+01 -1.23752E+01
  -8.62141E+00 -5.76360E+00 -5.84884E+00 -6.58924E+00 -4.07376E+00 -7.05269E+00 -6.23433E+00 -2.10649E+00 -1.03542E+01 -2.57291E+00
  -1.40759E+00 -3.17635E-02  2.55339E-01 -6.16364E-01  3.00240E-01 -4.95454E-02  4.03045E+00 -6.85262E+00  5.76435E-02  2.49182E+00
   1.15062E+00 -1.08292E+00  3.61720E+00  1.68812E+00  3.79273E-01  1.16848E+00  2.53843E+00  1.20125E+00  2.27367E-01  3.07699E+00
   2.08708E+00  1.89240E+00  5.94305E+00  7.41755E+00  8.03926E+00  3.39294E+00  7.99164E+00  8.37178E+00  1.03608E+01  6.21555E+00
   4.47184E+00  6.87666E+00  8.40456E+00  4.84376E+00  6.85041E+00  1.07070E+01  9.19027E+00  7.61691E+00  1.21627E+01  8.60872E+00
   1.14932E+01  9.08690E+00  7.78981E+00  7.04995E+00  5.03292E+00  6.87850E+00  7.02137E+00  2.31499E+00  4.18867E+00  7.54943E+00
   3.83629E+00  5.01250E+00  4.66313E+00  7.39244E+00  5.57052E+00  5.53653E+00  1.08381E+01  3.79952E+00  4.57465E+00  3.39282E+00
   4.35063E-01  4.33670E+00  5.60908E+00  1.29331E+00  4.71078E+00  6.26004E+00  5.73407E+00  1.70719E+00  3.66952E+00  6.99879E+00
   6.25444E+00  3.57523E+00  7.88241E-01  2.84633E+00  8.72973E-01  6.82767E+00  7.21743E-01  6.80414E+00  7.00991E-01 -1.40366E+00
   3.70727E+00  7.97315E+00  5.83396E+00  3.58918E+00  5.68468E-01  3.16274E+00 -1.05928E-01  7.12346E+00  2.68828E+00  1.59244E+00
   2.53926E+00  2.97960E+00  4.33293E+00  3.14937E+00  4.26289E+00  2.29870E+00  4.89314E+00  3.02725E+00  2.39609E+00  6.58677E+00
   8.93654E+00  3.90491E+00  3.33492E+00  1.43771E+00  5.88941E+00  2.16399E+00  3.70555E+00  2.23925E+00  1.80538E+00  4.47630E+00
   4.93907E+00  1.86857E+00  7.25944E+00  6.21118E+00  3.84387E+00  8.03770E+00  7.51038E+00  2.94064E+00  2.96429E-01  3.29793E+00
   7.07165E+00  3.07815E+00  4.19954E+00  1.91468E-01  3.92935E+00  5.88735E+00  2.97194E+00  5.96659E+00
 NY points of the fit to the data follow
   7.87952E+01  7.85580E+01  7.89130E+01  8.06592E+01  8.38789E+01  8.88291E+01  9.57690E+01  1.03729E+02  1.11171E+02  1.16020E+02
   1.16617E+02  1.12709E+02  1.05596E+02  9.74742E+01  9.00752E+01  8.39433E+01  7.90124E+01  7.52658E+01  7.23910E+01  7.03897E+01
   6.92195E+01  6.82597E+01  6.71577E+01  6.59762E+01  6.50634E+01  6.46638E+01  6.46783E+01  6.55633E+01  6.76976E+01  7.04933E+01
   7.26221E+01  7.30205E+01  7.15098E+01  6.86980E+01  6.54948E+01  6.24113E+01  5.98005E+01  5.80148E+01  5.71544E+01  5.69249E+01
   5.69085E+01  5.70478E+01  5.72934E+01  5.75205E+01  5.77833E+01  5.80811E+01  5.81606E+01  5.77175E+01  5.66821E+01  5.51814E+01
   5.35390E+01  5.20319E+01  5.07051E+01  4.95524E+01  4.86447E+01  4.80046E+01  4.75754E+01  4.72577E+01  4.69974E+01  4.66756E+01
   4.61515E+01  4.53794E+01  4.44368E+01  4.34903E+01  4.26813E+01  4.20654E+01  4.16457E+01  4.13633E+01  4.11522E+01  4.09642E+01
   4.07694E+01  4.05104E+01  4.01388E+01  3.96546E+01  3.91083E+01  3.85665E+01  3.80659E+01  3.76062E+01  3.71674E+01  3.67420E+01
   3.63318E+01  3.58896E+01  3.53915E+01  3.48224E+01  3.41803E+01  3.34781E+01  3.27833E+01  3.22184E+01  3.18903E+01  3.18109E+01
   3.19232E+01  3.21315E+01  3.23485E+01  3.25524E+01  3.27629E+01  3.30932E+01  3.42676E+01  3.82350E+01  4.46372E+01  5.28464E+01
   6.34612E+01  7.51815E+01  8.37929E+01  8.49978E+01  7.84054E+01  6.76915E+01  5.71043E+01  4.87894E+01  4.25233E+01  3.72162E+01
   3.28787E+01  3.06350E+01  2.99168E+01  2.96256E+01  2.94825E+01  2.94189E+01  2.94242E+01  2.95070E+01  2.97163E+01  3.02446E+01
   3.19738E+01  3.72630E+01  4.56298E+01  5.61286E+01  6.94632E+01  8.41389E+01  9.50716E+01  9.69858E+01  8.93411E+01  7.65564E+01
   6.38204E+01  5.38107E+01  4.61515E+01  3.92565E+01  3.30301E+01  2.90340E+01  2.70675E+01  2.60858E+01  2.58277E+01  2.60654E+01
   2.64704E+01  2.67600E+01  2.67965E+01  2.65374E+01  2.60451E+01  2.54541E+01  2.48492E+01  2.42531E+01  2.36655E+01  2.30715E+01
   2.25078E+01  2.19846E+01  2.15124E+01  2.11367E+01  2.08575E+01  2.05614E+01  2.02399E+01  1.98195E+01  1.92030E+01  1.84994E+01
   1.78706E+01  1.75971E+01  1.77590E+01  1.80366E+01  1.79729E+01  1.73933E+01  1.65074E+01  1.56798E+01  1.50845E+01  1.46164E+01
   1.41196E+01  1.35560E+01  1.30148E+01  1.24791E+01  1.19582E+01  1.16118E+01  1.16855E+01  1.20600E+01  1.23135E+01  1.22054E+01
   1.18761E+01  1.16413E+01  1.17718E+01  1.20910E+01  1.22802E+01  1.25018E+01  1.32365E+01  1.46538E+01  1.64508E+01  1.80982E+01
   1.92593E+01  1.98268E+01  1.97062E+01  1.91311E+01  1.83879E+01  1.75298E+01  1.66738E+01  1.60898E+01  1.60998E+01  1.67422E+01
   1.78540E+01  1.90897E+01  2.01432E+01  2.06797E+01  2.04143E+01  1.94119E+01  1.78054E+01  1.58760E+01  1.42318E+01  1.33544E+01
   1.36328E+01  1.48801E+01  1.70169E+01  1.97949E+01  2.24177E+01  2.36769E+01  2.27799E+01  2.00620E+01  1.66039E+01  1.33123E+01
   1.07093E+01  9.38910E+00  9.91783E+00  1.22717E+01  1.56657E+01  1.88221E+01  2.10623E+01  2.24091E+01  2.31055E+01  2.32630E+01
   2.29533E+01  2.26217E+01  2.28329E+01  2.36324E+01  2.46270E+01  2.55549E+01  2.61781E+01  2.62597E+01  2.58117E+01  2.49929E+01
   2.41925E+01  2.38805E+01  2.43903E+01  2.56546E+01  2.72600E+01  2.87943E+01  3.00213E+01  3.08097E+01  3.11919E+01  3.17725E+01
   3.32794E+01  3.54989E+01  3.85114E+01  4.28905E+01  5.10410E+01  6.20003E+01  7.28677E+01  8.56122E+01  1.00980E+02  1.14036E+02
   1.17171E+02  1.07554E+02  8.98764E+01  7.16183E+01  5.73185E+01  4.68059E+01  3.78790E+01  2.99107E+01  2.50105E+01  2.31402E+01
   2.20663E+01  2.13135E+01  2.07823E+01  2.03134E+01  1.97786E+01  1.91546E+01  1.84844E+01  1.78402E+01  1.72572E+01  1.67397E+01
   1.62951E+01  1.59421E+01  1.56784E+01  1.54717E+01  1.52858E+01  1.51169E+01  1.49908E+01  1.49256E+01  1.49280E+01  1.50090E+01
   1.51810E+01  1.54412E+01  1.57641E+01  1.61237E+01  1.65135E+01  1.69298E+01  1.73689E+01  1.78297E+01  1.83106E+01  1.88104E+01
   1.93208E+01  1.98204E+01  2.02858E+01  2.06972E+01  2.10390E+01  2.12985E+01  2.14623E+01  2.15188E+01  2.14634E+01  2.12926E+01
   2.10045E+01  2.06000E+01  2.00826E+01  1.94587E+01  1.87383E+01  1.79328E+01  1.70547E+01  1.61171E+01  1.51342E+01  1.41206E+01
   1.30905E+01  1.20570E+01  1.10311E+01  1.00227E+01  9.04080E+00  8.09271E+00  7.18417E+00  6.31882E+00  5.49867E+00  4.72476E+00
   3.99752E+00  3.31659E+00  2.68063E+00  2.08735E+00  1.53414E+00  1.01858E+00  5.38486E-01  9.15838E-02 -3.24728E-01 -7.13169E-01
  -1.07610E+00 -1.41531E+00 -1.73223E+00 -2.02835E+00 -2.30534E+00 -2.56478E+00 -2.80775E+00 -3.03483E+00 -3.24653E+00 -3.44356E+00
  -3.62676E+00 -3.79678E+00 -3.95381E+00 -4.09778E+00 -4.22872E+00 -4.34694E+00 -4.45279E+00 -4.54630E+00 -4.62714E+00 -4.69489E+00
  -4.74936E+00 -4.79058E+00 -4.81845E+00 -4.83268E+00 -4.83286E+00 -4.81863E+00 -4.78986E+00 -4.74647E+00 -4.68810E+00 -4.61395E+00
  -4.52306E+00 -4.41458E+00 -4.28775E+00 -4.14169E+00 -3.97505E+00 -3.78613E+00 -3.57316E+00 -3.33449E+00 -3.06852E+00 -2.77345E+00
  -2.44716E+00 -2.08752E+00 -1.69269E+00 -1.26141E+00 -7.92800E-01 -2.86340E-01  2.58013E-01  8.39385E-01  1.45562E+00  2.10318E+00
   2.77737E+00  3.47238E+00  4.18115E+00  4.89521E+00  5.60469E+00  6.29875E+00  6.96608E+00  7.59536E+00  8.17544E+00  8.69557E+00
   9.14584E+00  9.51790E+00  9.80549E+00  1.00046E+01  1.01135E+01  1.01327E+01  1.00647E+01  9.91473E+00  9.69005E+00  9.39967E+00
   9.05363E+00  8.66255E+00  8.23733E+00  7.78901E+00  7.32829E+00  6.86497E+00  6.40760E+00  5.96340E+00  5.53838E+00  5.13744E+00
   4.76428E+00  4.42125E+00  4.10945E+00  3.82904E+00  3.57961E+00  3.36034E+00  3.16990E+00  3.00646E+00  2.86789E+00  2.75202E+00
   2.65689E+00  2.58066E+00  2.52146E+00  2.47734E+00  2.44643E+00  2.42716E+00  2.41831E+00  2.41874E+00  2.42732E+00  2.44284E+00
   2.46430E+00  2.49095E+00  2.52228E+00  2.55771E+00  2.59660E+00  2.63825E+00  2.68217E+00  2.72812E+00  2.77587E+00  2.82510E+00
   2.87537E+00  2.92628E+00  2.97763E+00  3.02940E+00  3.08155E+00  3.13391E+00  3.18621E+00  3.23832E+00  3.29026E+00  3.34216E+00
   3.39398E+00  3.44555E+00  3.49669E+00  3.54741E+00  3.59782E+00  3.64805E+00  3.69801E+00  3.74755E+00  3.79658E+00  3.84519E+00
   3.89355E+00  3.94172E+00  3.98959E+00  4.03702E+00  4.08404E+00  4.13078E+00  4.17741E+00  4.22391E+00  4.27014E+00  4.31604E+00
   4.36169E+00  4.40729E+00  4.45293E+00  4.49853E+00  4.54398E+00  4.58927E+00  4.63458E+00  4.68005E+00  4.72573E+00  4.77150E+00
   4.81729E+00  4.86316E+00  4.90931E+00  4.95587E+00  5.00280E+00  5.04997E+00  5.09738E+00  5.14517E+00
 NY background values follow
     7.582E+01    7.523E+01    7.464E+01    7.404E+01    7.345E+01    7.286E+01    7.227E+01    7.167E+01    7.108E+01    7.049E+01
     6.989E+01    6.930E+01    6.871E+01    6.812E+01    6.752E+01    6.693E+01    6.634E+01    6.575E+01    6.517E+01    6.458E+01
     6.399E+01    6.341E+01    6.283E+01    6.225E+01    6.167E+01    6.109E+01    6.051E+01    5.994E+01    5.937E+01    5.880E+01
     5.823E+01    5.767E+01    5.711E+01    5.655E+01    5.600E+01    5.544E+01    5.489E+01    5.435E+01    5.380E+01    5.326E+01
     5.273E+01    5.220E+01    5.167E+01    5.114E+01    5.062E+01    5.011E+01    4.959E+01    4.909E+01    4.858E+01    4.808E+01
     4.759E+01    4.710E+01    4.661E+01    4.613E+01    4.565E+01    4.518E+01    4.471E+01    4.425E+01    4.379E+01    4.334E+01
     4.289E+01    4.244E+01    4.200E+01    4.157E+01    4.114E+01    4.072E+01    4.029E+01    3.988E+01    3.947E+01    3.906E+01
     3.866E+01    3.827E+01    3.788E+01    3.749E+01    3.711E+01    3.674E+01    3.637E+01    3.601E+01    3.565E+01    3.529E+01
     3.495E+01    3.460E+01    3.427E+01    3.393E+01    3.361E+01    3.329E+01    3.297E+01    3.266E+01    3.236E+01    3.206E+01
     3.177E+01    3.148E+01    3.120E+01    3.092E+01    3.065E+01    3.038E+01    3.012E+01    2.987E+01    2.962E+01    2.937E+01
     2.913E+01    2.889E+01    2.866E+01    2.843E+01    2.821E+01    2.799E+01    2.777E+01    2.755E+01    2.734E+01    2.714E+01
     2.693E+01    2.673E+01    2.653E+01    2.634E+01    2.615E+01    2.596E+01    2.577E+01    2.558E+01    2.540E+01    2.522E+01
     2.504E+01    2.486E+01    2.468E+01    2.451E+01    2.433E+01    2.416E+01    2.399E+01    2.381E+01    2.364E+01    2.347E+01
     2.330E+01    2.313E+01    2.296E+01    2.279E+01    2.262E+01    2.245E+01    2.228E+01    2.211E+01    2.194E+01    2.176E+01
     2.159E+01    2.142E+01    2.125E+01    2.107E+01    2.090E+01    2.073E+01    2.056E+01    2.039E+01    2.022E+01    2.005E+01
     1.988E+01    1.971E+01    1.954E+01    1.937E+01    1.921E+01    1.904E+01    1.888E+01    1.872E+01    1.856E+01    1.840E+01
     1.824E+01    1.808E+01    1.793E+01    1.778E+01    1.763E+01    1.748E+01    1.733E+01    1.719E+01    1.705E+01    1.691E+01
     1.677E+01    1.664E+01    1.651E+01    1.638E+01    1.625E+01    1.613E+01    1.601E+01    1.590E+01    1.578E+01    1.567E+01
     1.557E+01    1.547E+01    1.537E+01    1.527E+01    1.518E+01    1.509E+01    1.501E+01    1.492E+01    1.484E+01    1.477E+01
     1.469E+01    1.462E+01    1.455E+01    1.448E+01    1.442E+01    1.436E+01    1.430E+01    1.424E+01    1.418E+01    1.413E+01
     1.407E+01    1.402E+01    1.397E+01    1.392E+01    1.388E+01    1.383E+01    1.378E+01    1.374E+01    1.369E+01    1.365E+01
     1.361E+01    1.356E+01    1.352E+01    1.348E+01    1.344E+01    1.339E+01    1.335E+01    1.331E+01    1.326E+01    1.322E+01
     1.318E+01    1.313E+01    1.308E+01    1.304E+01    1.299E+01    1.294E+01    1.289E+01    1.284E+01    1.278E+01    1.273E+01
     1.267E+01    1.262E+01    1.256E+01    1.250E+01    1.243E+01    1.237E+01    1.230E+01    1.224E+01    1.217E+01    1.209E+01
     1.202E+01    1.195E+01    1.187E+01    1.179E+01    1.171E+01    1.163E+01    1.154E+01    1.145E+01    1.136E+01    1.127E+01
     1.118E+01    1.108E+01    1.098E+01    1.088E+01    1.078E+01    1.067E+01    1.056E+01    1.045E+01    1.034E+01    1.022E+01
     1.010E+01    9.980E+00    9.855E+00    9.728E+00    9.597E+00    9.464E+00    9.328E+00    9.190E+00    9.048E+00    8.903E+00
     8.755E+00    8.604E+00    8.450E+00    8.293E+00    8.132E+00    7.969E+00    7.803E+00    7.634E+00    7.463E+00    7.289E+00
     7.112E+00    6.933E+00    6.752E+00    6.568E+00    6.382E+00    6.194E+00    6.004E+00    5.812E+00    5.618E+00    5.422E+00
     5.224E+00    5.024E+00    4.823E+00    4.621E+00    4.417E+00    4.211E+00    4.005E+00    3.797E+00    3.587E+00    3.377E+00
     3.166E+00    2.954E+00    2.741E+00    2.527E+00    2.312E+00    2.097E+00    1.882E+00    1.665E+00    1.449E+00    1.232E+00
     1.015E+00    7.976E-01    5.802E-01    3.628E-01    1.455E-01   -7.166E-02   -2.886E-01   -5.053E-01   -7.215E-01   -9.372E-01
    -1.152E+00   -1.366E+00   -1.579E+00   -1.790E+00   -2.001E+00   -2.209E+00   -2.416E+00   -2.621E+00   -2.824E+00   -3.025E+00
    -3.223E+00   -3.418E+00   -3.611E+00   -3.801E+00   -3.988E+00   -4.172E+00   -4.352E+00   -4.529E+00   -4.702E+00   -4.871E+00
    -5.036E+00   -5.197E+00   -5.354E+00   -5.506E+00   -5.653E+00   -5.795E+00   -5.933E+00   -6.065E+00   -6.192E+00   -6.313E+00
    -6.429E+00   -6.538E+00   -6.642E+00   -6.740E+00   -6.831E+00   -6.915E+00   -6.993E+00   -7.065E+00   -7.129E+00   -7.186E+00
    -7.235E+00   -7.277E+00   -7.312E+00   -7.339E+00   -7.358E+00   -7.370E+00   -7.375E+00   -7.373E+00   -7.364E+00   -7.349E+00
    -7.327E+00   -7.299E+00   -7.265E+00   -7.225E+00   -7.180E+00   -7.128E+00   -7.072E+00   -7.010E+00   -6.944E+00   -6.872E+00
    -6.796E+00   -6.716E+00   -6.631E+00   -6.542E+00   -6.449E+00   -6.353E+00   -6.252E+00   -6.149E+00   -6.042E+00   -5.932E+00
    -5.819E+00   -5.704E+00   -5.586E+00   -5.466E+00   -5.344E+00   -5.219E+00   -5.093E+00   -4.965E+00   -4.836E+00   -4.705E+00
    -4.574E+00   -4.441E+00   -4.308E+00   -4.174E+00   -4.040E+00   -3.905E+00   -3.771E+00   -3.636E+00   -3.502E+00   -3.368E+00
    -3.235E+00   -3.102E+00   -2.969E+00   -2.836E+00   -2.705E+00   -2.573E+00   -2.442E+00   -2.312E+00   -2.182E+00   -2.053E+00
    -1.925E+00   -1.797E+00   -1.670E+00   -1.544E+00   -1.419E+00   -1.294E+00   -1.171E+00   -1.048E+00   -9.262E-01   -8.053E-01
    -6.855E-01   -5.666E-01   -4.489E-01   -3.322E-01   -2.167E-01   -1.024E-01    1.080E-02    1.227E-01    2.334E-01    3.427E-01
     4.507E-01    5.573E-01    6.626E-01    7.664E-01    8.687E-01    9.695E-01    1.069E+00    1.167E+00    1.263E+00    1.357E+00
     1.450E+00    1.541E+00    1.630E+00    1.718E+00    1.804E+00    1.888E+00    1.971E+00    2.052E+00    2.131E+00    2.209E+00
     2.286E+00    2.361E+00    2.435E+00    2.507E+00    2.579E+00    2.649E+00    2.718E+00    2.785E+00    2.852E+00    2.918E+00
     2.982E+00    3.046E+00    3.109E+00    3.171E+00    3.232E+00    3.293E+00    3.353E+00    3.412E+00    3.470E+00    3.528E+00
     3.585E+00    3.642E+00    3.699E+00    3.755E+00    3.810E+00    3.866E+00    3.921E+00    3.976E+00    4.031E+00    4.085E+00
     4.140E+00    4.195E+00    4.249E+00    4.304E+00    4.359E+00    4.414E+00    4.469E+00    4.524E+00
 Cr       Conc. = 9.12E+02
