 LCModel (Version 6.3-1L) Copyright: S.W. Provencher.          Ref.: Magn. Reson. Med. 30:672-679 (1993).                
 Slice#1 Row#2 Col#4  K_02_press_1_raw_act
 36 lines in following concentration table = NCONC+1
    Conc.  %SD /Cr+PCr  Metabolite                                         
    0.000 999%   0.000 Ala                                                 
    4.787 134%   0.201 Asp                                                 
    5.106 511%   0.214 Cr                                                  
   18.745 161%   0.786 PCr                                                 
    2.771 139%   0.116 GABA                                                
    3.059 126%   0.128 Glc                                                 
    0.000 999%   0.000 Gln                                                 
   22.306 193%   0.935 Glu                                                 
   11.440  86%   0.480 GPC                                                 
    0.000 999%   0.000 PCh                                                 
    0.000 999%   0.000 GSH                                                 
   87.992  95%   3.689 Ins                                                 
    0.000 999%   0.000 Lac                                                 
   42.588  79%   1.786 NAA                                                 
    0.000 999%   0.000 NAAG                                                
    0.952 135% 4.0E-02 Scyllo                                              
    4.491 143%   0.188 Tau                                                 
    1.701 347% 7.1E-02 -CrCH2                                              
   11.440  86%   0.480 GPC+PCh                                             
   42.588  79%   1.786 NAA+NAAG                                            
   23.851  93%   1.000 Cr+PCr                                              
   22.306 193%   0.935 Glu+Gln                                             
 7.76E+03   8% 325.203 Lip13a                                              
  744.933  63%  31.232 Lip13b                                              
 2.21E+03   7%  92.521 Lip09                                               
    0.000 999%   0.000 MM09                                                
 1.19E+03   8%  49.852 Lip20                                               
    0.000 999%   0.000 MM20                                                
    0.210 999% 8.8E-03 MM12                                                
    1.810 999% 7.6E-02 MM14                                                
    3.064 551%   0.128 MM17                                                
 8.50E+03   5% 356.435 Lip13a+Lip13b                                       
 8.50E+03   5% 356.520 MM14+Lip13a+Lip13b+MM12                             
 2.21E+03   7%  92.521 MM09+Lip09                                          
 1.19E+03   8%  49.852 MM20+Lip20                                          
   6 lines in following misc. output table
  FWHM = 0.023 ppm    S/N =   6                                            
  Data shift = 0.031 ppm                                                   
  Ph:-159 deg     -15.5 deg/ppm                                            
  alphaB,S = 2.9E+00,   1.6E+00                                            
   14 spline knots.   Ns = 5(1)                                            
  (10) 2 infls.   ( 9) 2 extrs.                                            
  498 points on ppm-axis = NY
      4.000000     3.992357     3.984714     3.977070     3.969427     3.961784     3.954141     3.946497     3.938854     3.931211
      3.923568     3.915925     3.908281     3.900638     3.892995     3.885352     3.877708     3.870065     3.862422     3.854779
      3.847136     3.839492     3.831849     3.824206     3.816563     3.808919     3.801276     3.793633     3.785990     3.778347
      3.770703     3.763060     3.755417     3.747774     3.740130     3.732487     3.724844     3.717201     3.709558     3.701914
      3.694271     3.686628     3.678985     3.671341     3.663698     3.656055     3.648412     3.640769     3.633125     3.625482
      3.617839     3.610196     3.602552     3.594909     3.587266     3.579623     3.571980     3.564336     3.556693     3.549050
      3.541407     3.533763     3.526120     3.518477     3.510834     3.503191     3.495547     3.487904     3.480261     3.472618
      3.464974     3.457331     3.449688     3.442045     3.434402     3.426758     3.419115     3.411472     3.403829     3.396185
      3.388542     3.380899     3.373256     3.365613     3.357969     3.350326     3.342683     3.335040     3.327396     3.319753
      3.312110     3.304467     3.296824     3.289180     3.281537     3.273894     3.266251     3.258607     3.250964     3.243321
      3.235678     3.228034     3.220391     3.212748     3.205105     3.197462     3.189818     3.182175     3.174532     3.166889
      3.159245     3.151602     3.143959     3.136316     3.128673     3.121029     3.113386     3.105743     3.098100     3.090456
      3.082813     3.075170     3.067527     3.059884     3.052240     3.044597     3.036954     3.029311     3.021667     3.014024
      3.006381     2.998738     2.991095     2.983451     2.975808     2.968165     2.960522     2.952878     2.945235     2.937592
      2.929949     2.922306     2.914662     2.907019     2.899376     2.891733     2.884089     2.876446     2.868803     2.861160
      2.853517     2.845873     2.838230     2.830587     2.822944     2.815300     2.807657     2.800014     2.792371     2.784728
      2.777084     2.769441     2.761798     2.754155     2.746511     2.738868     2.731225     2.723582     2.715939     2.708295
      2.700652     2.693009     2.685366     2.677722     2.670079     2.662436     2.654793     2.647150     2.639506     2.631863
      2.624220     2.616577     2.608933     2.601290     2.593647     2.586004     2.578361     2.570717     2.563074     2.555431
      2.547788     2.540144     2.532501     2.524858     2.517215     2.509572     2.501928     2.494285     2.486642     2.478999
      2.471355     2.463712     2.456069     2.448426     2.440783     2.433139     2.425496     2.417853     2.410210     2.402566
      2.394923     2.387280     2.379637     2.371994     2.364350     2.356707     2.349064     2.341421     2.333777     2.326134
      2.318491     2.310848     2.303205     2.295561     2.287918     2.280275     2.272632     2.264988     2.257345     2.249702
      2.242059     2.234416     2.226772     2.219129     2.211486     2.203843     2.196199     2.188556     2.180913     2.173270
      2.165627     2.157983     2.150340     2.142697     2.135054     2.127410     2.119767     2.112124     2.104481     2.096838
      2.089194     2.081551     2.073908     2.066265     2.058621     2.050978     2.043335     2.035692     2.028049     2.020405
      2.012762     2.005119     1.997476     1.989833     1.982190     1.974546     1.966903     1.959260     1.951617     1.943974
      1.936331     1.928688     1.921045     1.913402     1.905759     1.898115     1.890472     1.882829     1.875186     1.867543
      1.859900     1.852257     1.844614     1.836971     1.829327     1.821684     1.814041     1.806398     1.798755     1.791112
      1.783469     1.775826     1.768183     1.760540     1.752896     1.745253     1.737610     1.729967     1.722324     1.714681
      1.707038     1.699395     1.691752     1.684108     1.676465     1.668822     1.661179     1.653536     1.645893     1.638250
      1.630607     1.622964     1.615321     1.607677     1.600034     1.592391     1.584748     1.577105     1.569462     1.561819
      1.554176     1.546533     1.538890     1.531246     1.523603     1.515960     1.508317     1.500674     1.493031     1.485388
      1.477745     1.470102     1.462458     1.454815     1.447172     1.439529     1.431886     1.424243     1.416600     1.408957
      1.401314     1.393671     1.386027     1.378384     1.370741     1.363098     1.355455     1.347812     1.340169     1.332526
      1.324883     1.317240     1.309596     1.301953     1.294310     1.286667     1.279024     1.271381     1.263738     1.256095
      1.248452     1.240808     1.233165     1.225522     1.217879     1.210236     1.202593     1.194950     1.187307     1.179664
      1.172021     1.164377     1.156734     1.149091     1.141448     1.133805     1.126162     1.118519     1.110876     1.103233
      1.095590     1.087946     1.080303     1.072660     1.065017     1.057374     1.049731     1.042088     1.034445     1.026802
      1.019158     1.011515     1.003872     0.996229     0.988586     0.980943     0.973300     0.965657     0.958014     0.950371
      0.942727     0.935084     0.927441     0.919798     0.912155     0.904512     0.896869     0.889226     0.881583     0.873940
      0.866296     0.858653     0.851010     0.843367     0.835724     0.828081     0.820438     0.812795     0.805152     0.797508
      0.789865     0.782222     0.774579     0.766936     0.759293     0.751650     0.744007     0.736364     0.728721     0.721077
      0.713434     0.705791     0.698148     0.690505     0.682862     0.675219     0.667576     0.659933     0.652290     0.644646
      0.637003     0.629360     0.621717     0.614074     0.606431     0.598788     0.591145     0.583502     0.575858     0.568215
      0.560572     0.552929     0.545286     0.537643     0.530000     0.522357     0.514714     0.507071     0.499427     0.491784
      0.484141     0.476498     0.468855     0.461212     0.453569     0.445925     0.438282     0.430639     0.422996     0.415353
      0.407710     0.400067     0.392424     0.384780     0.377137     0.369494     0.361851     0.354208     0.346565     0.338922
      0.331278     0.323635     0.315992     0.308349     0.300706     0.293063     0.285420     0.277777     0.270133     0.262490
      0.254847     0.247204     0.239561     0.231918     0.224275     0.216631     0.208988     0.201345
 NY phased data points follow
   1.46549E+01  5.34183E+00  3.51703E+00  8.53891E+00  1.01322E+01  6.10991E+00  7.57307E+00  6.79183E+00  8.17611E+00  7.00419E+00
   7.35738E+00  1.01066E+01  9.51761E+00  6.13591E+00  7.15658E+00  8.62585E+00  2.15380E+00  6.19595E+00  8.56993E+00  6.24497E+00
   7.74000E+00  4.65921E+00  7.76740E+00  4.65600E+00  6.92979E+00  6.55297E+00  6.30012E+00  9.67798E+00  6.01348E+00  5.03231E+00
   2.53104E+00  5.54738E+00  2.08413E+00  3.23976E+00  4.18080E+00  5.10438E+00  4.28166E+00  4.86599E+00  5.69628E+00  6.16044E+00
   4.29698E+00  5.99881E+00  2.77131E+00  4.78115E+00  1.48661E+00  1.70037E+00  4.11538E+00  4.17953E+00  5.84447E+00  4.79362E+00
   7.67986E+00  4.69705E-01  3.82854E+00  2.91402E+00  7.40479E+00  6.91857E+00  3.25855E+00  4.35106E+00  6.54072E-01  4.27437E+00
   7.08810E+00  4.02116E+00  5.92754E+00  5.87877E+00  9.69327E+00  7.80850E+00  4.44022E+00  5.80477E+00  1.65823E+00  1.62880E+00
   2.80962E+00  5.48073E+00  1.49760E+00  8.09810E+00  4.16073E+00  1.57160E+00  2.12164E+00  2.99620E+00 -3.81804E-01  1.54517E+00
   4.51788E+00  6.81169E+00  4.90107E+00  3.69404E+00  2.55830E+00  3.90730E+00  2.11202E+00  6.34229E+00 -5.44433E-01  2.42600E+00
   3.02747E+00  2.55564E+00  4.04521E+00  1.40746E+00  5.70671E+00  5.59308E+00  4.94711E+00  4.45325E+00  9.22337E-01  1.21097E+00
   2.87243E+00  3.05927E+00  2.61419E+00  6.58245E+00  9.62883E+00  4.09708E+00  2.54758E+00  4.20611E+00  6.82427E+00  4.26925E+00
  -4.72720E-01  3.02841E+00 -1.56284E+00 -1.37567E+00  1.47796E+00  5.74126E+00  3.19203E+00  1.84951E+00 -2.61760E-01 -1.31858E+00
   1.35689E+00  3.43595E+00 -1.25791E+00 -2.98314E-01  5.60321E+00  2.09157E+00  1.88450E+00  7.80099E-01  4.68665E+00  6.37405E+00
   7.55927E+00  2.72477E+00 -7.76714E-01  4.56314E+00  4.65810E+00  5.42256E+00 -2.19397E+00  6.74778E-01  4.31597E+00  2.52603E+00
   2.33312E+00  1.03519E+00  5.12787E+00  6.11775E+00  3.50442E+00  1.84550E+00  1.75226E+00  5.08565E+00  9.62545E-01  3.32130E+00
   5.42104E+00  2.86141E-01  7.24628E+00  1.53176E+00  3.50941E+00  5.49957E+00  5.38865E+00 -5.47305E-01  3.63431E+00  3.82985E+00
   2.28110E+00  4.14688E+00  4.43444E+00  1.86663E-01  3.04919E+00  4.52282E+00  3.54874E+00  3.10370E+00  3.25183E+00  5.64760E+00
  -4.96199E-01  1.21912E+00  2.79724E+00  7.17314E+00  1.43366E+00  5.32537E-01  1.50116E+00  5.31601E-01  4.73227E+00  4.55946E+00
   4.49859E+00  7.06042E-01  1.27507E+00  2.48016E+00  3.66614E+00  2.65547E+00  2.69417E+00  1.96374E+00 -2.29534E+00  2.85295E+00
   4.34105E+00  3.51431E+00  1.03407E+00  8.65570E+00  4.71646E+00  2.17956E+00  1.81412E+00  1.94423E+00  5.02611E+00  3.08255E+00
   1.81143E+00  5.39131E+00  6.68571E-01  2.39685E+00  2.56978E+00  2.74910E+00  5.40266E+00  3.86724E+00  1.48204E+00  3.68280E+00
   5.31028E+00  3.74348E+00 -3.16969E+00  4.99528E+00  1.01482E+00  1.89419E+00  6.19650E+00  3.49826E+00  1.00653E-01  2.14119E+00
   3.01220E+00  8.38584E-01  6.02108E+00  9.48889E-01  2.74938E-01 -4.27449E-01 -1.17672E+00  2.94376E+00 -2.25125E+00  3.73369E+00
   1.81218E+00  3.14990E+00  2.11692E+00  2.71327E+00  4.66401E+00  3.45804E+00  2.35466E+00  5.64524E+00  7.31968E+00  6.86619E-01
   1.42492E+00  4.68951E+00  5.92986E+00  1.85234E+00  7.02446E+00  4.05374E+00  2.43313E+00  5.62735E+00  4.01278E+00  7.98177E+00
   3.77753E+00  2.20014E+00  2.97800E+00  5.39527E+00  4.20331E-01  9.08525E-01 -1.71157E+00 -6.46167E-02  2.07529E+00  3.15407E+00
   6.71958E+00  1.03384E+01  7.75858E+00  7.18009E+00  3.69429E+00  2.36903E-01  8.33762E-02 -3.51610E-01 -1.65432E+00 -1.49680E+00
  -1.88179E+00 -5.00972E-01  2.80142E+00 -2.63646E+00  3.03223E-01  4.01206E+00  2.03073E+00 -5.75178E-01  2.69545E-01  4.06455E+00
  -1.66622E-01  3.01184E+00  2.12617E+00  4.18811E+00  3.02865E+00  6.58803E+00  3.72305E+00  2.62874E+00  5.67111E+00  4.41242E+00
   2.47905E+00  4.84148E+00  2.99528E+00  6.19010E+00  4.70769E+00  6.94524E+00  5.06101E+00  7.11699E+00  1.10302E+01  1.15341E+01
   9.76054E+00  1.39030E+01  9.64721E+00  1.10946E+01  1.08753E+01  1.14436E+01  8.43076E+00  1.51540E+01  1.44974E+01  1.53080E+01
   1.66787E+01  1.70286E+01  1.70063E+01  2.28011E+01  1.89093E+01  2.26002E+01  2.34719E+01  2.58491E+01  2.78053E+01  2.92547E+01
   2.85314E+01  2.93618E+01  3.22813E+01  3.82590E+01  3.62181E+01  4.19235E+01  3.40586E+01  3.51026E+01  3.77973E+01  3.94767E+01
   4.33133E+01  4.39446E+01  3.93122E+01  3.97965E+01  4.12510E+01  4.11190E+01  4.04100E+01  3.33522E+01  3.11236E+01  3.14806E+01
   3.14011E+01  2.73911E+01  2.54167E+01  1.87636E+01  1.44904E+01  1.73231E+01  1.29602E+01  1.41779E+01  1.45215E+01  1.30069E+01
   1.60574E+01  1.74277E+01  8.86734E+00  1.33428E+01  1.30335E+01  5.96172E+00  1.35481E+01  1.05351E+01  6.08019E+00  9.37206E+00
   9.99041E+00  5.31655E+00  8.98606E+00  8.38521E+00  8.64639E+00  7.03239E+00  6.08271E+00  3.41494E+00  7.88922E+00  6.81662E+00
   6.42213E+00  6.39800E+00  4.25801E+00  2.50840E+00  7.08475E+00  7.87961E+00  3.40916E+00  4.17386E+00  3.24841E+00  5.04546E-02
   3.94485E+00  1.31010E+00  1.79236E+00  6.17607E+00  3.44088E+00  3.78065E+00  1.05908E+00  1.16499E+00  5.17076E+00  2.57812E+00
   2.56988E+00  3.73971E+00  3.80995E+00  3.08653E+00  5.34339E+00  2.54720E+00  3.82140E+00  3.36102E+00  2.53483E+00  4.81564E+00
   3.62505E+00  1.48982E+00 -7.78020E-01  2.92050E+00  1.69325E+00 -1.34157E+00 -1.46841E+00  3.02408E+00  3.14100E+00  4.18599E+00
   1.54270E+00  1.60965E+00  5.51787E+00  7.43334E-01  2.97669E+00 -1.30214E-02  2.24462E+00  6.38590E-01  1.96399E-01  2.85040E-01
   2.23566E+00 -1.00637E+00 -2.58593E-01 -9.01305E-01 -1.33176E+00  3.62014E-01  2.00866E+00  8.86809E-01 -3.09075E+00 -3.78911E-02
  -2.15638E+00  4.01636E+00  1.43023E+00  2.71663E+00  1.91630E+00  4.08196E+00  2.65602E+00  1.38350E+00  1.20398E+00  3.08087E+00
   5.05900E+00  2.23274E+00  2.69235E+00  7.02230E-01 -7.00500E-01  6.23002E+00  3.41847E-01  3.40162E+00  9.23599E-01 -2.88684E-01
   2.04628E+00  2.93458E+00  2.20585E-01 -2.39553E+00 -1.47662E-01  2.75016E+00  1.32820E+00  1.22035E+00 -2.26765E+00  1.46135E+00
   9.40987E-01  1.71538E+00 -1.02213E+00  1.34671E+00  1.97429E+00 -2.53294E-01 -1.07068E+00  1.94742E-01 -1.64116E+00  4.80247E-02
   4.47753E+00  1.26012E+00  1.40510E+00  4.96334E+00 -2.49424E+00 -1.62630E+00  1.79252E+00  2.71741E-01 -3.51127E+00 -2.72506E+00
  -8.82763E-01  2.16100E-01 -2.87083E+00  1.31579E+00 -2.73046E+00  1.31999E+00  2.51953E+00  3.67374E+00  3.29304E+00 -2.28254E+00
   5.42735E-01  3.16964E+00  2.88915E+00 -7.31549E-01  2.49253E+00 -2.54217E-01 -3.60809E+00 -1.15048E+00
 NY points of the fit to the data follow
   5.21098E+00  5.01501E+00  4.89432E+00  4.78697E+00  4.56284E+00  4.31419E+00  4.31699E+00  4.51477E+00  4.87671E+00  5.54961E+00
   6.29455E+00  6.57489E+00  6.25003E+00  5.65419E+00  5.15791E+00  4.87224E+00  4.76213E+00  4.74834E+00  4.70698E+00  4.62014E+00
   4.52871E+00  4.47924E+00  4.48559E+00  4.53974E+00  4.58660E+00  4.59310E+00  4.58842E+00  4.53833E+00  4.38369E+00  4.18975E+00
   4.09069E+00  4.12953E+00  4.24271E+00  4.36689E+00  4.52931E+00  4.69682E+00  4.76197E+00  4.74150E+00  4.71631E+00  4.62974E+00
   4.34354E+00  3.88802E+00  3.42201E+00  3.06823E+00  3.00337E+00  3.33626E+00  4.02141E+00  5.08283E+00  6.33321E+00  6.99109E+00
   6.44368E+00  5.10328E+00  3.93488E+00  3.41701E+00  3.28211E+00  3.21619E+00  3.24392E+00  3.37545E+00  3.56367E+00  3.88742E+00
   4.36195E+00  4.78126E+00  4.86740E+00  4.54958E+00  4.02701E+00  3.56252E+00  3.30259E+00  3.23293E+00  3.31570E+00  3.52701E+00
   3.70459E+00  3.79669E+00  3.92959E+00  4.08456E+00  4.10489E+00  3.98858E+00  3.85791E+00  3.76761E+00  3.67414E+00  3.58555E+00
   3.52083E+00  3.48160E+00  3.54435E+00  3.70551E+00  3.83185E+00  3.85938E+00  3.78738E+00  3.53824E+00  3.08323E+00  2.62968E+00
   2.45147E+00  2.59221E+00  2.85638E+00  3.12867E+00  3.33935E+00  3.44786E+00  3.40881E+00  2.95540E+00  1.98926E+00  1.53340E+00
   1.94846E+00  2.70935E+00  4.22966E+00  6.46146E+00  7.64604E+00  6.67547E+00  4.75058E+00  3.44974E+00  3.06078E+00  2.94054E+00
   2.91978E+00  2.93788E+00  2.96395E+00  2.99513E+00  3.02221E+00  3.04101E+00  3.04489E+00  3.03533E+00  3.02032E+00  2.99232E+00
   2.92825E+00  2.74529E+00  2.22779E+00  1.79186E+00  2.01728E+00  2.59990E+00  3.46299E+00  4.95165E+00  6.33870E+00  6.36560E+00
   5.16238E+00  3.92597E+00  3.37621E+00  3.23856E+00  3.20025E+00  3.21450E+00  3.25316E+00  3.30509E+00  3.35479E+00  3.39807E+00
   3.44042E+00  3.47536E+00  3.49596E+00  3.51591E+00  3.54921E+00  3.59704E+00  3.64878E+00  3.68241E+00  3.68828E+00  3.67988E+00
   3.67532E+00  3.67917E+00  3.68339E+00  3.68351E+00  3.68174E+00  3.68764E+00  3.71017E+00  3.71369E+00  3.67241E+00  3.60013E+00
   3.48455E+00  3.35254E+00  3.27042E+00  3.27205E+00  3.34679E+00  3.42651E+00  3.41832E+00  3.31531E+00  3.19044E+00  3.10386E+00
   3.05878E+00  3.03117E+00  2.99067E+00  2.90134E+00  2.80155E+00  2.72159E+00  2.65069E+00  2.60359E+00  2.62166E+00  2.68185E+00
   2.68139E+00  2.58898E+00  2.50749E+00  2.48756E+00  2.49158E+00  2.49607E+00  2.45531E+00  2.38077E+00  2.36944E+00  2.46473E+00
   2.57921E+00  2.61663E+00  2.57605E+00  2.54959E+00  2.57354E+00  2.62658E+00  2.70549E+00  2.78317E+00  2.78018E+00  2.68000E+00
   2.59034E+00  2.58051E+00  2.64197E+00  2.76616E+00  2.93681E+00  3.09239E+00  3.16084E+00  3.14425E+00  3.11860E+00  3.07732E+00
   2.97830E+00  2.85332E+00  2.80329E+00  2.89147E+00  3.10063E+00  3.44564E+00  3.88322E+00  4.20092E+00  4.20446E+00  3.95037E+00
   3.65136E+00  3.45054E+00  3.28631E+00  3.19235E+00  3.33394E+00  3.70428E+00  4.08034E+00  4.28549E+00  4.34250E+00  4.34676E+00
   4.32852E+00  4.28696E+00  4.26592E+00  4.30209E+00  4.38063E+00  4.46779E+00  4.54731E+00  4.60986E+00  4.66084E+00  4.68436E+00
   4.66502E+00  4.63573E+00  4.63344E+00  4.65650E+00  4.72225E+00  4.85369E+00  4.99980E+00  5.08584E+00  5.10100E+00  5.08616E+00
   5.03981E+00  4.95904E+00  4.88340E+00  4.84031E+00  4.65218E+00  3.80547E+00  2.88305E+00  3.08366E+00  3.98470E+00  5.29193E+00
   7.75697E+00  1.03535E+01  1.06512E+01  8.51477E+00  6.09994E+00  4.89469E+00  4.51769E+00  4.34606E+00  4.28612E+00  4.23804E+00
   4.17965E+00  4.12652E+00  4.09548E+00  4.09428E+00  4.12410E+00  4.16753E+00  4.20716E+00  4.23494E+00  4.25380E+00  4.27080E+00
   4.29029E+00  4.31661E+00  4.35692E+00  4.41536E+00  4.48952E+00  4.57689E+00  4.67802E+00  4.79081E+00  4.91000E+00  5.03675E+00
   5.17534E+00  5.32623E+00  5.48893E+00  5.66514E+00  5.85696E+00  6.06611E+00  6.29469E+00  6.54498E+00  6.81886E+00  7.11843E+00
   7.44707E+00  7.80836E+00  8.20631E+00  8.64570E+00  9.13181E+00  9.67024E+00  1.02672E+01  1.09296E+01  1.16648E+01  1.24801E+01
   1.33827E+01  1.43796E+01  1.54766E+01  1.66781E+01  1.79867E+01  1.94024E+01  2.09221E+01  2.25389E+01  2.42411E+01  2.60126E+01
   2.78320E+01  2.96730E+01  3.15045E+01  3.32912E+01  3.49945E+01  3.65738E+01  3.79878E+01  3.91966E+01  4.01634E+01  4.08557E+01
   4.12479E+01  4.13221E+01  4.10696E+01  4.04914E+01  3.95984E+01  3.84109E+01  3.69581E+01  3.52766E+01  3.34093E+01  3.14030E+01
   2.93069E+01  2.71708E+01  2.50430E+01  2.29692E+01  2.09910E+01  1.91447E+01  1.74604E+01  1.59606E+01  1.46602E+01  1.35648E+01
   1.26706E+01  1.19633E+01  1.14190E+01  1.10048E+01  1.06811E+01  1.04049E+01  1.01336E+01  9.82945E+00  9.46364E+00  9.01934E+00
   8.49320E+00  7.89477E+00  7.24426E+00  6.56883E+00  5.89839E+00  5.26152E+00  4.68218E+00  4.17755E+00  3.75726E+00  3.42384E+00
   3.17406E+00  3.00060E+00  2.89380E+00  2.84304E+00  2.83792E+00  2.86894E+00  2.92792E+00  3.00810E+00  3.10399E+00  3.21111E+00
   3.32587E+00  3.44530E+00  3.56700E+00  3.68895E+00  3.80935E+00  3.92655E+00  4.03902E+00  4.14536E+00  4.24432E+00  4.33473E+00
   4.41548E+00  4.48552E+00  4.54390E+00  4.58986E+00  4.62275E+00  4.64208E+00  4.64745E+00  4.63860E+00  4.61545E+00  4.57811E+00
   4.52687E+00  4.46215E+00  4.38447E+00  4.29447E+00  4.19297E+00  4.08091E+00  3.95931E+00  3.82922E+00  3.69173E+00  3.54793E+00
   3.39901E+00  3.24613E+00  3.09041E+00  2.93289E+00  2.77455E+00  2.61633E+00  2.45914E+00  2.30380E+00  2.15100E+00  2.00133E+00
   1.85532E+00  1.71342E+00  1.57604E+00  1.44348E+00  1.31596E+00  1.19360E+00  1.07650E+00  9.64716E-01  8.58287E-01  7.57169E-01
   6.61257E-01  5.70427E-01  4.84561E-01  4.03543E-01  3.27231E-01  2.55439E-01  1.87961E-01  1.24601E-01  6.51985E-02  9.59534E-03
  -4.23854E-02 -9.09506E-02 -1.36298E-01 -1.78595E-01 -2.17976E-01 -2.54581E-01 -2.88573E-01 -3.20125E-01 -3.49389E-01 -3.76481E-01
  -4.01495E-01 -4.24545E-01 -4.45764E-01 -4.65284E-01 -4.83202E-01 -4.99588E-01 -5.14508E-01 -5.28052E-01 -5.40326E-01 -5.51421E-01
  -5.61392E-01 -5.70278E-01 -5.78129E-01 -5.85021E-01 -5.91034E-01 -5.96223E-01 -6.00612E-01 -6.04226E-01 -6.07106E-01 -6.09322E-01
  -6.10927E-01 -6.11949E-01 -6.12391E-01 -6.12273E-01 -6.11640E-01 -6.10546E-01 -6.09021E-01 -6.07073E-01 -6.04699E-01 -6.01923E-01
  -5.98787E-01 -5.95332E-01 -5.91569E-01 -5.87490E-01 -5.83095E-01 -5.78414E-01 -5.73486E-01 -5.68335E-01 -5.62955E-01 -5.57335E-01
  -5.51483E-01 -5.45433E-01 -5.39216E-01 -5.32840E-01 -5.26286E-01 -5.19550E-01 -5.12648E-01 -5.05616E-01
 NY background values follow
     3.948E+00    3.923E+00    3.899E+00    3.875E+00    3.851E+00    3.826E+00    3.802E+00    3.778E+00    3.753E+00    3.729E+00
     3.705E+00    3.681E+00    3.656E+00    3.632E+00    3.608E+00    3.584E+00    3.559E+00    3.535E+00    3.511E+00    3.487E+00
     3.462E+00    3.438E+00    3.414E+00    3.390E+00    3.366E+00    3.341E+00    3.317E+00    3.293E+00    3.269E+00    3.245E+00
     3.221E+00    3.196E+00    3.172E+00    3.148E+00    3.124E+00    3.100E+00    3.076E+00    3.052E+00    3.028E+00    3.004E+00
     2.980E+00    2.956E+00    2.932E+00    2.908E+00    2.884E+00    2.860E+00    2.836E+00    2.813E+00    2.789E+00    2.765E+00
     2.741E+00    2.717E+00    2.694E+00    2.670E+00    2.646E+00    2.623E+00    2.599E+00    2.575E+00    2.552E+00    2.528E+00
     2.505E+00    2.481E+00    2.458E+00    2.434E+00    2.411E+00    2.388E+00    2.364E+00    2.341E+00    2.318E+00    2.295E+00
     2.272E+00    2.248E+00    2.225E+00    2.202E+00    2.179E+00    2.156E+00    2.133E+00    2.111E+00    2.088E+00    2.065E+00
     2.042E+00    2.020E+00    1.997E+00    1.974E+00    1.952E+00    1.929E+00    1.907E+00    1.885E+00    1.862E+00    1.840E+00
     1.818E+00    1.796E+00    1.774E+00    1.752E+00    1.730E+00    1.708E+00    1.686E+00    1.664E+00    1.642E+00    1.621E+00
     1.599E+00    1.577E+00    1.556E+00    1.534E+00    1.513E+00    1.492E+00    1.470E+00    1.449E+00    1.428E+00    1.407E+00
     1.386E+00    1.365E+00    1.344E+00    1.324E+00    1.303E+00    1.282E+00    1.262E+00    1.241E+00    1.221E+00    1.201E+00
     1.180E+00    1.160E+00    1.140E+00    1.120E+00    1.100E+00    1.080E+00    1.061E+00    1.041E+00    1.021E+00    1.002E+00
     9.824E-01    9.630E-01    9.438E-01    9.246E-01    9.055E-01    8.865E-01    8.675E-01    8.487E-01    8.299E-01    8.113E-01
     7.927E-01    7.742E-01    7.558E-01    7.375E-01    7.193E-01    7.012E-01    6.832E-01    6.652E-01    6.474E-01    6.296E-01
     6.120E-01    5.944E-01    5.769E-01    5.595E-01    5.423E-01    5.251E-01    5.080E-01    4.910E-01    4.741E-01    4.573E-01
     4.405E-01    4.239E-01    4.074E-01    3.910E-01    3.747E-01    3.585E-01    3.423E-01    3.263E-01    3.104E-01    2.945E-01
     2.788E-01    2.632E-01    2.477E-01    2.323E-01    2.169E-01    2.017E-01    1.866E-01    1.716E-01    1.567E-01    1.419E-01
     1.272E-01    1.126E-01    9.808E-02    8.369E-02    6.941E-02    5.523E-02    4.116E-02    2.720E-02    1.335E-02   -3.992E-04
    -1.404E-02   -2.757E-02   -4.099E-02   -5.430E-02   -6.750E-02   -8.059E-02   -9.357E-02   -1.064E-01   -1.192E-01   -1.318E-01
    -1.444E-01   -1.568E-01   -1.691E-01   -1.813E-01   -1.934E-01   -2.053E-01   -2.172E-01   -2.289E-01   -2.405E-01   -2.520E-01
    -2.634E-01   -2.746E-01   -2.858E-01   -2.968E-01   -3.077E-01   -3.185E-01   -3.292E-01   -3.397E-01   -3.502E-01   -3.605E-01
    -3.706E-01   -3.807E-01   -3.906E-01   -4.005E-01   -4.102E-01   -4.197E-01   -4.292E-01   -4.385E-01   -4.477E-01   -4.568E-01
    -4.657E-01   -4.745E-01   -4.832E-01   -4.918E-01   -5.003E-01   -5.086E-01   -5.168E-01   -5.249E-01   -5.329E-01   -5.407E-01
    -5.484E-01   -5.560E-01   -5.635E-01   -5.708E-01   -5.780E-01   -5.851E-01   -5.921E-01   -5.990E-01   -6.057E-01   -6.123E-01
    -6.188E-01   -6.252E-01   -6.314E-01   -6.376E-01   -6.436E-01   -6.495E-01   -6.552E-01   -6.609E-01   -6.664E-01   -6.718E-01
    -6.771E-01   -6.822E-01   -6.872E-01   -6.922E-01   -6.970E-01   -7.016E-01   -7.062E-01   -7.106E-01   -7.149E-01   -7.191E-01
    -7.232E-01   -7.272E-01   -7.310E-01   -7.347E-01   -7.383E-01   -7.418E-01   -7.452E-01   -7.484E-01   -7.516E-01   -7.546E-01
    -7.575E-01   -7.603E-01   -7.630E-01   -7.656E-01   -7.681E-01   -7.705E-01   -7.727E-01   -7.749E-01   -7.770E-01   -7.789E-01
    -7.808E-01   -7.825E-01   -7.842E-01   -7.858E-01   -7.872E-01   -7.886E-01   -7.898E-01   -7.910E-01   -7.921E-01   -7.931E-01
    -7.940E-01   -7.948E-01   -7.955E-01   -7.961E-01   -7.966E-01   -7.971E-01   -7.975E-01   -7.977E-01   -7.979E-01   -7.980E-01
    -7.981E-01   -7.980E-01   -7.979E-01   -7.977E-01   -7.974E-01   -7.970E-01   -7.966E-01   -7.961E-01   -7.955E-01   -7.948E-01
    -7.941E-01   -7.933E-01   -7.924E-01   -7.914E-01   -7.904E-01   -7.893E-01   -7.881E-01   -7.869E-01   -7.856E-01   -7.842E-01
    -7.827E-01   -7.812E-01   -7.796E-01   -7.780E-01   -7.763E-01   -7.745E-01   -7.726E-01   -7.707E-01   -7.687E-01   -7.666E-01
    -7.645E-01   -7.623E-01   -7.601E-01   -7.578E-01   -7.554E-01   -7.530E-01   -7.505E-01   -7.479E-01   -7.453E-01   -7.426E-01
    -7.398E-01   -7.370E-01   -7.342E-01   -7.312E-01   -7.283E-01   -7.252E-01   -7.221E-01   -7.190E-01   -7.157E-01   -7.125E-01
    -7.091E-01   -7.058E-01   -7.023E-01   -6.988E-01   -6.953E-01   -6.917E-01   -6.880E-01   -6.843E-01   -6.805E-01   -6.767E-01
    -6.728E-01   -6.689E-01   -6.649E-01   -6.609E-01   -6.568E-01   -6.527E-01   -6.485E-01   -6.443E-01   -6.400E-01   -6.356E-01
    -6.313E-01   -6.268E-01   -6.223E-01   -6.178E-01   -6.132E-01   -6.086E-01   -6.039E-01   -5.992E-01   -5.944E-01   -5.896E-01
    -5.847E-01   -5.798E-01   -5.749E-01   -5.699E-01   -5.648E-01   -5.597E-01   -5.546E-01   -5.494E-01   -5.442E-01   -5.389E-01
    -5.336E-01   -5.282E-01   -5.228E-01   -5.174E-01   -5.119E-01   -5.064E-01   -5.008E-01   -4.952E-01   -4.896E-01   -4.839E-01
    -4.782E-01   -4.724E-01   -4.666E-01   -4.607E-01   -4.549E-01   -4.489E-01   -4.430E-01   -4.370E-01   -4.310E-01   -4.250E-01
    -4.189E-01   -4.128E-01   -4.066E-01   -4.005E-01   -3.943E-01   -3.880E-01   -3.818E-01   -3.755E-01   -3.692E-01   -3.629E-01
    -3.565E-01   -3.501E-01   -3.437E-01   -3.373E-01   -3.308E-01   -3.244E-01   -3.179E-01   -3.114E-01   -3.049E-01   -2.983E-01
    -2.918E-01   -2.852E-01   -2.786E-01   -2.720E-01   -2.654E-01   -2.587E-01   -2.521E-01   -2.454E-01   -2.388E-01   -2.321E-01
    -2.254E-01   -2.187E-01   -2.120E-01   -2.053E-01   -1.986E-01   -1.918E-01   -1.851E-01   -1.784E-01   -1.716E-01   -1.649E-01
    -1.581E-01   -1.514E-01   -1.446E-01   -1.378E-01   -1.310E-01   -1.243E-01   -1.175E-01   -1.107E-01   -1.039E-01   -9.707E-02
    -9.027E-02   -8.346E-02   -7.664E-02   -6.983E-02   -6.301E-02   -5.618E-02   -4.936E-02   -4.253E-02   -3.570E-02   -2.886E-02
    -2.203E-02   -1.519E-02   -8.355E-03   -1.515E-03    5.326E-03    1.217E-02    1.901E-02    2.585E-02    3.270E-02    3.954E-02
     4.639E-02    5.323E-02    6.007E-02    6.692E-02    7.376E-02    8.060E-02    8.744E-02    9.428E-02
 Asp      Conc. = 4.79E+00
